trial,timestamp,target,stimulus,is_target
0,1752426138.0688848,0,1,0
0,1752426138.2701056,0,0,1
0,1752426138.473466,0,2,0
0,1752426138.6752212,0,1,0
0,1752426138.8785849,0,0,1
0,1752426139.080992,0,2,0
0,1752426139.2847233,0,1,0
0,1752426139.487905,0,2,0
0,1752426139.690161,0,0,1
0,1752426139.8923852,0,2,0
0,1752426140.0953197,0,0,1
0,1752426140.2978432,0,1,0
0,1752426140.4999535,0,1,0
0,1752426140.7025623,0,2,0
0,1752426140.905373,0,0,1
0,1752426141.1082132,0,1,0
0,1752426141.3096325,0,0,1
0,1752426141.5120687,0,2,0
0,1752426141.7148397,0,2,0
0,1752426141.9180357,0,1,0
0,1752426142.1211934,0,0,1
0,1752426142.3237858,0,0,1
0,1752426142.525,0,1,0
0,1752426142.7279496,0,2,0
0,1752426142.9299607,0,1,0
0,1752426143.1331234,0,2,0
0,1752426143.3356116,0,0,1
0,1752426143.5385907,0,2,0
0,1752426143.7412715,0,0,1
0,1752426143.9438336,0,1,0
0,1752426144.1471527,0,2,0
0,1752426144.3488472,0,0,1
0,1752426144.5528471,0,1,0
0,1752426144.7555459,0,1,0
0,1752426144.9578414,0,2,0
0,1752426145.160521,0,0,1
1,1752426164.8927226,1,2,0
1,1752426165.0946875,1,1,1
1,1752426165.296109,1,0,0
1,1752426165.4990692,1,2,0
1,1752426165.7017334,1,0,0
1,1752426165.9049442,1,1,1
1,1752426166.1084394,1,1,1
1,1752426166.3109422,1,0,0
1,1752426166.5131974,1,2,0
1,1752426166.715328,1,2,0
1,1752426166.9185188,1,1,1
1,1752426167.120445,1,0,0
1,1752426167.3225842,1,2,0
1,1752426167.5262737,1,1,1
1,1752426167.7287347,1,0,0
1,1752426167.9309855,1,0,0
1,1752426168.1348848,1,2,0
1,1752426168.3374946,1,1,1
1,1752426168.5413222,1,2,0
1,1752426168.7426112,1,1,1
1,1752426168.9463866,1,0,0
1,1752426169.1488378,1,1,1
1,1752426169.3529193,1,0,0
1,1752426169.5562677,1,2,0
1,1752426169.7602503,1,1,1
1,1752426169.9623587,1,2,0
1,1752426170.1647677,1,0,0
1,1752426170.3670743,1,0,0
1,1752426170.569219,1,2,0
1,1752426170.7715497,1,1,1
1,1752426170.9745762,1,0,0
1,1752426171.1754565,1,2,0
1,1752426171.37804,1,1,1
1,1752426171.5810409,1,2,0
1,1752426171.7845445,1,1,1
1,1752426171.9858017,1,0,0
2,1752426174.5340526,2,0,0
2,1752426174.7369134,2,2,1
2,1752426174.9392216,2,1,0
2,1752426175.1412868,2,0,0
2,1752426175.3440251,2,2,1
2,1752426175.548105,2,1,0
2,1752426175.749754,2,0,0
2,1752426175.952057,2,2,1
2,1752426176.1545613,2,1,0
2,1752426176.357449,2,1,0
2,1752426176.5586276,2,0,0
2,1752426176.7625175,2,2,1
2,1752426176.964206,2,1,0
2,1752426177.1664314,2,0,0
2,1752426177.3712165,2,2,1
2,1752426177.5754364,2,1,0
2,1752426177.7786226,2,0,0
2,1752426177.9813368,2,2,1
2,1752426178.1832788,2,0,0
2,1752426178.3856854,2,1,0
2,1752426178.5891252,2,2,1
2,1752426178.7931767,2,0,0
2,1752426178.9959393,2,2,1
2,1752426179.1981554,2,1,0
2,1752426179.4000313,2,2,1
2,1752426179.601668,2,1,0
2,1752426179.804697,2,0,0
2,1752426180.0073435,2,1,0
2,1752426180.2088192,2,0,0
2,1752426180.410762,2,2,1
2,1752426180.6145315,2,0,0
2,1752426180.8155801,2,1,0
2,1752426181.0189185,2,2,1
2,1752426181.2218025,2,0,0
2,1752426181.4245145,2,2,1
2,1752426181.625839,2,1,0
3,1752426185.2670693,1,0,0
3,1752426185.4685202,1,1,1
3,1752426185.671807,1,2,0
3,1752426185.8753152,1,2,0
3,1752426186.0766356,1,0,0
3,1752426186.2791893,1,1,1
3,1752426186.4817843,1,2,0
3,1752426186.684855,1,1,1
3,1752426186.88666,1,0,0
3,1752426187.0897436,1,2,0
3,1752426187.2928813,1,1,1
3,1752426187.4945874,1,0,0
3,1752426187.6967626,1,1,1
3,1752426187.8993535,1,2,0
3,1752426188.1021922,1,0,0
3,1752426188.30465,1,1,1
3,1752426188.5073955,1,2,0
3,1752426188.71056,1,0,0
3,1752426188.9127157,1,2,0
3,1752426189.1150546,1,1,1
3,1752426189.318026,1,0,0
3,1752426189.5202193,1,2,0
3,1752426189.7247186,1,1,1
3,1752426189.926665,1,0,0
3,1752426190.1301658,1,1,1
3,1752426190.331206,1,0,0
3,1752426190.5333776,1,2,0
3,1752426190.7372754,1,1,1
3,1752426190.9393537,1,0,0
3,1752426191.1417387,1,2,0
3,1752426191.3457086,1,0,0
3,1752426191.5491555,1,2,0
3,1752426191.7522316,1,1,1
3,1752426191.9531817,1,2,0
3,1752426192.1555917,1,1,1
3,1752426192.3575516,1,0,0
4,1752426194.7554562,0,0,1
4,1752426194.9575639,0,1,0
4,1752426195.1603835,0,2,0
4,1752426195.363678,0,0,1
4,1752426195.5662744,0,2,0
4,1752426195.7701414,0,1,0
4,1752426195.9720864,0,0,1
4,1752426196.1761267,0,1,0
4,1752426196.378617,0,2,0
4,1752426196.5817547,0,2,0
4,1752426196.7845623,0,1,0
4,1752426196.9864852,0,0,1
4,1752426197.188801,0,0,1
4,1752426197.39077,0,2,0
4,1752426197.5943496,0,1,0
4,1752426197.7972052,0,0,1
4,1752426198.0006762,0,2,0
4,1752426198.2021074,0,1,0
4,1752426198.4049604,0,1,0
4,1752426198.6069438,0,0,1
4,1752426198.8102107,0,2,0
4,1752426199.013042,0,0,1
4,1752426199.2152762,0,1,0
4,1752426199.4179866,0,2,0
4,1752426199.6188562,0,2,0
4,1752426199.820956,0,0,1
4,1752426200.0243337,0,1,0
4,1752426200.2263994,0,1,0
4,1752426200.4283774,0,2,0
4,1752426200.6310654,0,0,1
4,1752426200.8341947,0,2,0
4,1752426201.036521,0,0,1
4,1752426201.239959,0,1,0
4,1752426201.4422202,0,2,0
4,1752426201.6442335,0,0,1
4,1752426201.847647,0,1,0
5,1752426204.0356116,2,0,0
5,1752426204.2372928,2,2,1
5,1752426204.4403903,2,1,0
5,1752426204.6425679,2,0,0
5,1752426204.8465328,2,1,0
5,1752426205.0488617,2,2,1
5,1752426205.2510648,2,2,1
5,1752426205.454534,2,0,0
5,1752426205.6566768,2,1,0
5,1752426205.8596237,2,0,0
5,1752426206.0617573,2,2,1
5,1752426206.2641044,2,1,0
5,1752426206.4676037,2,0,0
5,1752426206.6696384,2,1,0
5,1752426206.8729718,2,2,1
5,1752426207.0764258,2,2,1
5,1752426207.2787473,2,0,0
5,1752426207.481087,2,1,0
5,1752426207.6846359,2,1,0
5,1752426207.886934,2,0,0
5,1752426208.090813,2,2,1
5,1752426208.2937608,2,2,1
5,1752426208.4960551,2,1,0
5,1752426208.6980422,2,0,0
5,1752426208.9015958,2,2,1
5,1752426209.1048503,2,1,0
5,1752426209.307827,2,0,0
5,1752426209.5098517,2,1,0
5,1752426209.7137449,2,2,1
5,1752426209.91622,2,0,0
5,1752426210.1190841,2,0,0
5,1752426210.3210194,2,1,0
5,1752426210.5242574,2,2,1
5,1752426210.7271607,2,0,0
5,1752426210.9292676,2,1,0
5,1752426211.1327386,2,2,1
6,1752426213.5306776,1,2,0
6,1752426213.7320805,1,0,0
6,1752426213.9347425,1,1,1
6,1752426214.1386473,1,1,1
6,1752426214.3413181,1,0,0
6,1752426214.5448291,1,2,0
6,1752426214.7470412,1,1,1
6,1752426214.950781,1,0,0
6,1752426215.1535368,1,2,0
6,1752426215.3562343,1,0,0
6,1752426215.5585556,1,1,1
6,1752426215.7606754,1,2,0
6,1752426215.9652016,1,1,1
6,1752426216.1682148,1,2,0
6,1752426216.3714788,1,0,0
6,1752426216.5724094,1,2,0
6,1752426216.7755466,1,1,1
6,1752426216.9774008,1,0,0
6,1752426217.1788974,1,1,1
6,1752426217.380884,1,0,0
6,1752426217.5820448,1,2,0
6,1752426217.7849975,1,2,0
6,1752426217.987114,1,1,1
6,1752426218.1887739,1,0,0
6,1752426218.3910036,1,0,0
6,1752426218.5936909,1,2,0
6,1752426218.7971363,1,1,1
6,1752426218.9995267,1,0,0
6,1752426219.2032168,1,2,0
6,1752426219.4058073,1,1,1
6,1752426219.609343,1,2,0
6,1752426219.8109612,1,0,0
6,1752426220.01281,1,1,1
6,1752426220.2148776,1,0,0
6,1752426220.4169521,1,1,1
6,1752426220.6214168,1,2,0
7,1752426223.38052,0,2,0
7,1752426223.5815926,0,1,0
7,1752426223.783811,0,0,1
7,1752426223.986271,0,2,0
7,1752426224.1887944,0,0,1
7,1752426224.3897686,0,1,0
7,1752426224.591313,0,0,1
7,1752426224.7941124,0,1,0
7,1752426224.9977226,0,2,0
7,1752426225.1997068,0,1,0
7,1752426225.4018946,0,0,1
7,1752426225.604163,0,2,0
7,1752426225.8055217,0,2,0
7,1752426226.0075104,0,0,1
7,1752426226.209647,0,1,0
7,1752426226.4118774,0,1,0
7,1752426226.6148398,0,0,1
7,1752426226.8164446,0,2,0
7,1752426227.0200772,0,0,1
7,1752426227.221573,0,2,0
7,1752426227.4254491,0,1,0
7,1752426227.6267788,0,1,0
7,1752426227.8280625,0,0,1
7,1752426228.0304418,0,2,0
7,1752426228.232573,0,2,0
7,1752426228.434777,0,0,1
7,1752426228.6367674,0,1,0
7,1752426228.8386998,0,1,0
7,1752426229.0407982,0,2,0
7,1752426229.242355,0,0,1
7,1752426229.444713,0,1,0
7,1752426229.6479583,0,0,1
7,1752426229.8500683,0,2,0
7,1752426230.053433,0,1,0
7,1752426230.2555678,0,0,1
7,1752426230.4575994,0,2,0
8,1752426233.2679763,2,0,0
8,1752426233.4702284,2,1,0
8,1752426233.6724148,2,2,1
8,1752426233.874937,2,2,1
8,1752426234.0774233,2,1,0
8,1752426234.2802606,2,0,0
8,1752426234.4837654,2,0,0
8,1752426234.6864622,2,2,1
8,1752426234.888548,2,1,0
8,1752426235.0916717,2,0,0
8,1752426235.293852,2,1,0
8,1752426235.4960086,2,2,1
8,1752426235.6990423,2,0,0
8,1752426235.9008324,2,1,0
8,1752426236.104185,2,2,1
8,1752426236.3064466,2,2,1
8,1752426236.508448,2,1,0
8,1752426236.7108998,2,0,0
8,1752426236.912479,2,2,1
8,1752426237.115149,2,1,0
8,1752426237.3188891,2,0,0
8,1752426237.5205305,2,2,1
8,1752426237.7235794,2,1,0
8,1752426237.9250612,2,0,0
8,1752426238.1272953,2,0,0
8,1752426238.329318,2,1,0
8,1752426238.5316384,2,2,1
8,1752426238.7327325,2,0,0
8,1752426238.93455,2,2,1
8,1752426239.1378274,2,1,0
8,1752426239.339212,2,1,0
8,1752426239.5430534,2,2,1
8,1752426239.7465603,2,0,0
8,1752426239.9492722,2,0,0
8,1752426240.1522677,2,1,0
8,1752426240.354033,2,2,1
9,1752426243.2160225,0,2,0
9,1752426243.4175482,0,1,0
9,1752426243.6198115,0,0,1
9,1752426243.8214746,0,2,0
9,1752426244.023424,0,0,1
9,1752426244.2264478,0,1,0
9,1752426244.4275706,0,2,0
9,1752426244.6300406,0,1,0
9,1752426244.8330488,0,0,1
9,1752426245.03582,0,2,0
9,1752426245.2384577,0,1,0
9,1752426245.4410524,0,0,1
9,1752426245.643901,0,1,0
9,1752426245.8453095,0,0,1
9,1752426246.0482183,0,2,0
9,1752426246.250298,0,0,1
9,1752426246.452082,0,2,0
9,1752426246.655038,0,1,0
9,1752426246.857433,0,0,1
9,1752426247.060675,0,2,0
9,1752426247.2633758,0,1,0
9,1752426247.4653876,0,2,0
9,1752426247.6685586,0,1,0
9,1752426247.8710413,0,0,1
9,1752426248.0734487,0,1,0
9,1752426248.2754962,0,2,0
9,1752426248.4783506,0,0,1
9,1752426248.68187,0,0,1
9,1752426248.8850877,0,2,0
9,1752426249.087282,0,1,0
9,1752426249.289454,0,2,0
9,1752426249.4926,0,1,0
9,1752426249.695771,0,0,1
9,1752426249.8966153,0,2,0
9,1752426250.1003656,0,0,1
9,1752426250.3036337,0,1,0
10,1752426253.0099869,1,0,0
10,1752426253.2110412,1,1,1
10,1752426253.4142413,1,2,0
10,1752426253.6161623,1,1,1
10,1752426253.8184075,1,2,0
10,1752426254.0198915,1,0,0
10,1752426254.221925,1,1,1
10,1752426254.423751,1,0,0
10,1752426254.6264246,1,2,0
10,1752426254.8299873,1,1,1
10,1752426255.0319765,1,2,0
10,1752426255.235141,1,0,0
10,1752426255.437059,1,0,0
10,1752426255.638283,1,2,0
10,1752426255.8406105,1,1,1
10,1752426256.0433528,1,0,0
10,1752426256.2443368,1,1,1
10,1752426256.446465,1,2,0
10,1752426256.648793,1,1,1
10,1752426256.8514473,1,0,0
10,1752426257.0531726,1,2,0
10,1752426257.2557137,1,0,0
10,1752426257.4575634,1,1,1
10,1752426257.6599941,1,2,0
10,1752426257.8622243,1,2,0
10,1752426258.0648172,1,1,1
10,1752426258.2683318,1,0,0
10,1752426258.4709027,1,1,1
10,1752426258.6720912,1,2,0
10,1752426258.874207,1,0,0
10,1752426259.078096,1,1,1
10,1752426259.2802558,1,2,0
10,1752426259.4819539,1,0,0
10,1752426259.6839168,1,1,1
10,1752426259.886626,1,2,0
10,1752426260.0887325,1,0,0
11,1752426262.278375,2,2,1
11,1752426262.4808931,2,1,0
11,1752426262.683152,2,0,0
11,1752426262.885274,2,2,1
11,1752426263.0882742,2,0,0
11,1752426263.29117,2,1,0
11,1752426263.4949496,2,0,0
11,1752426263.6965492,2,1,0
11,1752426263.898994,2,2,1
11,1752426264.1018245,2,0,0
11,1752426264.3041668,2,2,1
11,1752426264.5075564,2,1,0
11,1752426264.709226,2,0,0
11,1752426264.912291,2,1,0
11,1752426265.1146605,2,2,1
11,1752426265.3162599,2,0,0
11,1752426265.5187619,2,1,0
11,1752426265.7209375,2,2,1
11,1752426265.9231992,2,2,1
11,1752426266.1254096,2,0,0
11,1752426266.3283684,2,1,0
11,1752426266.5303326,2,0,0
11,1752426266.7331085,2,1,0
11,1752426266.9347134,2,2,1
11,1752426267.1376731,2,2,1
11,1752426267.3394077,2,0,0
11,1752426267.540734,2,1,0
11,1752426267.7440069,2,1,0
11,1752426267.9470038,2,2,1
11,1752426268.1498713,2,0,0
11,1752426268.3512933,2,0,0
11,1752426268.5531578,2,2,1
11,1752426268.7552874,2,1,0
11,1752426268.957445,2,1,0
11,1752426269.1600668,2,0,0
11,1752426269.3625517,2,2,1
12,1752426271.3014069,2,0,0
12,1752426271.5032957,2,2,1
12,1752426271.7057002,2,1,0
12,1752426271.9093022,2,1,0
12,1752426272.1117125,2,2,1
12,1752426272.31349,2,0,0
12,1752426272.5152304,2,0,0
12,1752426272.7172801,2,2,1
12,1752426272.9199176,2,1,0
12,1752426273.1231117,2,2,1
12,1752426273.3250635,2,1,0
12,1752426273.5267525,2,0,0
12,1752426273.728756,2,1,0
12,1752426273.9314013,2,2,1
12,1752426274.133491,2,0,0
12,1752426274.336153,2,2,1
12,1752426274.5392623,2,1,0
12,1752426274.7406569,2,0,0
12,1752426274.9429111,2,1,0
12,1752426275.145455,2,2,1
12,1752426275.3479257,2,0,0
12,1752426275.5503592,2,1,0
12,1752426275.753306,2,2,1
12,1752426275.9544754,2,0,0
12,1752426276.156615,2,2,1
12,1752426276.3586476,2,1,0
12,1752426276.5613244,2,0,0
12,1752426276.7634442,2,0,0
12,1752426276.965462,2,2,1
12,1752426277.169202,2,1,0
12,1752426277.3713849,2,0,0
12,1752426277.572612,2,1,0
12,1752426277.7748713,2,2,1
12,1752426277.9776742,2,2,1
12,1752426278.1812918,2,0,0
12,1752426278.383752,2,1,0
13,1752426279.4394886,1,2,0
13,1752426279.6405547,1,1,1
13,1752426279.8432205,1,0,0
13,1752426280.047102,1,2,0
13,1752426280.2499442,1,0,0
13,1752426280.4515724,1,1,1
13,1752426280.6544287,1,1,1
13,1752426280.8579185,1,2,0
13,1752426281.0614717,1,0,0
13,1752426281.2634833,1,0,0
13,1752426281.4661965,1,1,1
13,1752426281.669498,1,2,0
13,1752426281.8720934,1,0,0
13,1752426282.0748813,1,2,0
13,1752426282.2775567,1,1,1
13,1752426282.4808824,1,2,0
13,1752426282.6831775,1,1,1
13,1752426282.885728,1,0,0
13,1752426283.0881298,1,2,0
13,1752426283.2911828,1,0,0
13,1752426283.4931931,1,1,1
13,1752426283.6967204,1,1,1
13,1752426283.8983593,1,0,0
13,1752426284.1004193,1,2,0
13,1752426284.3043404,1,2,0
13,1752426284.5069733,1,0,0
13,1752426284.709255,1,1,1
13,1752426284.9116046,1,0,0
13,1752426285.1139288,1,1,1
13,1752426285.3155081,1,2,0
13,1752426285.5170593,1,0,0
13,1752426285.7194686,1,1,1
13,1752426285.921445,1,2,0
13,1752426286.1242049,1,1,1
13,1752426286.3270786,1,2,0
13,1752426286.5289192,1,0,0
14,1752426287.584195,0,1,0
14,1752426287.7851472,0,2,0
14,1752426287.9886215,0,0,1
14,1752426288.1914043,0,0,1
14,1752426288.3938339,0,2,0
14,1752426288.59603,0,1,0
14,1752426288.7979398,0,2,0
14,1752426288.9994256,0,1,0
14,1752426289.2023993,0,0,1
14,1752426289.4051456,0,2,0
14,1752426289.6073089,0,0,1
14,1752426289.8108897,0,1,0
14,1752426290.0138686,0,0,1
14,1752426290.216064,0,1,0
14,1752426290.4185374,0,2,0
14,1752426290.6208007,0,0,1
14,1752426290.823691,0,1,0
14,1752426291.0256448,0,2,0
14,1752426291.2276437,0,1,0
14,1752426291.429597,0,0,1
14,1752426291.6315033,0,2,0
14,1752426291.8342144,0,2,0
14,1752426292.036582,0,0,1
14,1752426292.2396965,0,1,0
14,1752426292.4419968,0,2,0
14,1752426292.6433513,0,0,1
14,1752426292.8460379,0,1,0
14,1752426293.0483727,0,0,1
14,1752426293.2496593,0,2,0
14,1752426293.4530108,0,1,0
14,1752426293.6549058,0,1,0
14,1752426293.8580377,0,2,0
14,1752426294.0596578,0,0,1
14,1752426294.262431,0,0,1
14,1752426294.4645627,0,1,0
14,1752426294.6684725,0,2,0
