trial,timestamp,target,stimulus,is_target
0,1752161369.0370102,0,1,0
0,1752161369.1370487,0,0,1
0,1752161369.2389703,0,2,0
0,1752161369.3402271,0,2,0
0,1752161369.4414418,0,0,1
0,1752161369.5432103,0,1,0
0,1752161369.6445491,0,0,1
0,1752161369.7462358,0,1,0
0,1752161369.8479548,0,2,0
0,1752161369.9493375,0,0,1
0,1752161370.0514717,0,2,0
0,1752161370.1520123,0,1,0
0,1752161370.2520611,0,0,1
0,1752161370.3532443,0,2,0
0,1752161370.4549093,0,1,0
0,1752161370.5551493,0,0,1
0,1752161370.6568851,0,2,0
0,1752161370.7588341,0,1,0
0,1752161370.8607168,0,1,0
0,1752161370.9624586,0,2,0
0,1752161371.064,0,0,1
0,1752161371.1654513,0,1,0
0,1752161371.2664678,0,2,0
0,1752161371.367477,0,0,1
0,1752161371.4686077,0,2,0
0,1752161371.5700288,0,1,0
0,1752161371.6714535,0,0,1
0,1752161371.7715766,0,0,1
0,1752161371.8726392,0,2,0
0,1752161371.9746299,0,1,0
0,1752161372.0758815,0,2,0
0,1752161372.1770535,0,1,0
0,1752161372.2784798,0,0,1
0,1752161372.3798044,0,0,1
0,1752161372.4816651,0,1,0
0,1752161372.5836403,0,2,0
1,1752161374.9415512,2,2,1
1,1752161375.0417514,2,0,0
1,1752161375.1429849,2,1,0
1,1752161375.2448714,2,0,0
1,1752161375.34597,2,2,1
1,1752161375.4474564,2,1,0
1,1752161375.5489793,2,2,1
1,1752161375.650474,2,0,0
1,1752161375.7517383,2,1,0
1,1752161375.8518348,2,1,0
1,1752161375.95381,2,0,0
1,1752161376.0549664,2,2,1
1,1752161376.1560736,2,2,1
1,1752161376.2574103,2,0,0
1,1752161376.3590958,2,1,0
1,1752161376.46146,2,2,1
1,1752161376.5627563,2,0,0
1,1752161376.664742,2,1,0
1,1752161376.7657843,2,0,0
1,1752161376.8673546,2,1,0
1,1752161376.9689183,2,2,1
1,1752161377.0705824,2,0,0
1,1752161377.1714876,2,2,1
1,1752161377.271582,2,1,0
1,1752161377.3732016,2,2,1
1,1752161377.4747195,2,0,0
1,1752161377.5764709,2,1,0
1,1752161377.6782265,2,2,1
1,1752161377.7789347,2,0,0
1,1752161377.8800848,2,1,0
1,1752161377.9806828,2,2,1
1,1752161378.0821586,2,1,0
1,1752161378.1838324,2,0,0
1,1752161378.2854567,2,1,0
1,1752161378.3868759,2,0,0
1,1752161378.48689,2,2,1
2,1752161380.4323957,1,0,0
2,1752161380.5332358,1,2,0
2,1752161380.6346781,1,1,1
2,1752161380.736257,1,0,0
2,1752161380.837398,1,1,1
2,1752161380.9376702,1,2,0
2,1752161381.039346,1,2,0
2,1752161381.1414866,1,0,0
2,1752161381.241724,1,1,1
2,1752161381.3435316,1,1,1
2,1752161381.44463,1,2,0
2,1752161381.5465498,1,0,0
2,1752161381.6482193,1,0,0
2,1752161381.7499206,1,2,0
2,1752161381.850408,1,1,1
2,1752161381.951481,1,2,0
2,1752161382.0525951,1,1,1
2,1752161382.1538725,1,0,0
2,1752161382.2558942,1,2,0
2,1752161382.3574076,1,0,0
2,1752161382.4587646,1,1,1
2,1752161382.559936,1,0,0
2,1752161382.660737,1,1,1
2,1752161382.762227,1,2,0
2,1752161382.8625393,1,2,0
2,1752161382.9642894,1,0,0
2,1752161383.0659566,1,1,1
2,1752161383.1677287,1,0,0
2,1752161383.2696862,1,2,0
2,1752161383.372136,1,1,1
2,1752161383.4722428,1,0,0
2,1752161383.574069,1,2,0
2,1752161383.675377,1,1,1
2,1752161383.7771351,1,0,0
2,1752161383.8788373,1,2,0
2,1752161383.9801347,1,1,1
3,1752161386.0339427,1,2,0
3,1752161386.1341422,1,1,1
3,1752161386.2354293,1,0,0
3,1752161386.3367872,1,1,1
3,1752161386.4387693,1,0,0
3,1752161386.5403564,1,2,0
3,1752161386.6420453,1,2,0
3,1752161386.7423508,1,1,1
3,1752161386.8439543,1,0,0
3,1752161386.945696,1,1,1
3,1752161387.0471866,1,2,0
3,1752161387.1487184,1,0,0
3,1752161387.2501533,1,2,0
3,1752161387.3502853,1,1,1
3,1752161387.45038,1,0,0
3,1752161387.5516975,1,2,0
3,1752161387.653504,1,0,0
3,1752161387.7547932,1,1,1
3,1752161387.8558326,1,2,0
3,1752161387.957235,1,1,1
3,1752161388.0576675,1,0,0
3,1752161388.1587543,1,1,1
3,1752161388.2592301,1,2,0
3,1752161388.3607113,1,0,0
3,1752161388.4626768,1,2,0
3,1752161388.563065,1,0,0
3,1752161388.6632903,1,1,1
3,1752161388.7649877,1,2,0
3,1752161388.8666387,1,1,1
3,1752161388.9679828,1,0,0
3,1752161389.0693262,1,0,0
3,1752161389.1714008,1,1,1
3,1752161389.2726476,1,2,0
3,1752161389.3745444,1,0,0
3,1752161389.475065,1,2,0
3,1752161389.5751724,1,1,1
4,1752161391.573539,2,0,0
4,1752161391.6737285,2,2,1
4,1752161391.7751093,2,1,0
4,1752161391.8769355,2,2,1
4,1752161391.9786007,2,1,0
4,1752161392.0796425,2,0,0
4,1752161392.1815102,2,0,0
4,1752161392.281602,2,1,0
4,1752161392.382465,2,2,1
4,1752161392.4839427,2,0,0
4,1752161392.5858548,2,1,0
4,1752161392.6877923,2,2,1
4,1752161392.7892716,2,0,0
4,1752161392.8906672,2,1,0
4,1752161392.9919593,2,2,1
4,1752161393.0944738,2,2,1
4,1752161393.1956499,2,0,0
4,1752161393.2960565,2,1,0
4,1752161393.397679,2,1,0
4,1752161393.499462,2,2,1
4,1752161393.5996535,2,0,0
4,1752161393.7015018,2,0,0
4,1752161393.8036222,2,1,0
4,1752161393.9053032,2,2,1
4,1752161394.006955,2,0,0
4,1752161394.108099,2,2,1
4,1752161394.2092574,2,1,0
4,1752161394.311552,2,0,0
4,1752161394.4126518,2,1,0
4,1752161394.513365,2,2,1
4,1752161394.6148617,2,1,0
4,1752161394.7159975,2,2,1
4,1752161394.8177514,2,0,0
4,1752161394.919728,2,2,1
4,1752161395.0216837,2,0,0
4,1752161395.1235547,2,1,0
5,1752161396.553482,0,0,1
5,1752161396.6541564,0,1,0
5,1752161396.7558458,0,2,0
5,1752161396.8571146,0,2,0
5,1752161396.9588592,0,0,1
5,1752161397.061361,0,1,0
5,1752161397.1625273,0,0,1
5,1752161397.2644377,0,1,0
5,1752161397.3663592,0,2,0
5,1752161397.4683456,0,1,0
5,1752161397.568989,0,0,1
5,1752161397.6704865,0,2,0
5,1752161397.7720048,0,1,0
5,1752161397.8726015,0,0,1
5,1752161397.9745176,0,2,0
5,1752161398.076403,0,1,0
5,1752161398.1776245,0,2,0
5,1752161398.2787101,0,0,1
5,1752161398.3807087,0,2,0
5,1752161398.4827838,0,1,0
5,1752161398.5844784,0,0,1
5,1752161398.6861808,0,0,1
5,1752161398.7874985,0,1,0
5,1752161398.8889484,0,2,0
5,1752161398.989009,0,0,1
5,1752161399.0902405,0,2,0
5,1752161399.191363,0,1,0
5,1752161399.2924466,0,0,1
5,1752161399.3940234,0,1,0
5,1752161399.4952543,0,2,0
5,1752161399.5968845,0,2,0
5,1752161399.6982558,0,0,1
5,1752161399.7999895,0,1,0
5,1752161399.9003732,0,0,1
5,1752161400.0016096,0,1,0
5,1752161400.1035438,0,2,0
6,1752161401.5884109,2,1,0
6,1752161401.6893623,2,0,0
6,1752161401.7918427,2,2,1
6,1752161401.8924265,2,2,1
6,1752161401.9935853,2,0,0
6,1752161402.0949705,2,1,0
6,1752161402.1959586,2,0,0
6,1752161402.2976975,2,2,1
6,1752161402.3993201,2,1,0
6,1752161402.5003505,2,2,1
6,1752161402.602119,2,1,0
6,1752161402.7029989,2,0,0
6,1752161402.8040016,2,1,0
6,1752161402.9057283,2,2,1
6,1752161403.0075543,2,0,0
6,1752161403.1092584,2,1,0
6,1752161403.2103803,2,2,1
6,1752161403.3113964,2,0,0
6,1752161403.412836,2,0,0
6,1752161403.5139806,2,1,0
6,1752161403.6153755,2,2,1
6,1752161403.716377,2,0,0
6,1752161403.8167307,2,1,0
6,1752161403.9168909,2,2,1
6,1752161404.0179281,2,0,0
6,1752161404.1198819,2,2,1
6,1752161404.2203863,2,1,0
6,1752161404.3225167,2,2,1
6,1752161404.4237254,2,1,0
6,1752161404.524832,2,0,0
6,1752161404.6266565,2,0,0
6,1752161404.7282097,2,2,1
6,1752161404.8292954,2,1,0
6,1752161404.9304867,2,2,1
6,1752161405.0316062,2,0,0
6,1752161405.132364,2,1,0
7,1752161406.356386,1,2,0
7,1752161406.4573426,1,1,1
7,1752161406.558683,1,0,0
7,1752161406.6606076,1,0,0
7,1752161406.7619193,1,2,0
7,1752161406.8636603,1,1,1
7,1752161406.965593,1,1,1
7,1752161407.0668871,1,2,0
7,1752161407.168513,1,0,0
7,1752161407.2700493,1,1,1
7,1752161407.3701975,1,0,0
7,1752161407.4706538,1,2,0
7,1752161407.572728,1,1,1
7,1752161407.6745262,1,0,0
7,1752161407.7756603,1,2,0
7,1752161407.877582,1,1,1
7,1752161407.979313,1,0,0
7,1752161408.080655,1,2,0
7,1752161408.1830502,1,2,0
7,1752161408.2846177,1,0,0
7,1752161408.385776,1,1,1
7,1752161408.487487,1,1,1
7,1752161408.5890157,1,0,0
7,1752161408.6904411,1,2,0
7,1752161408.7921076,1,0,0
7,1752161408.8928287,1,1,1
7,1752161408.9947586,1,2,0
7,1752161409.0964055,1,2,0
7,1752161409.1982703,1,1,1
7,1752161409.299267,1,0,0
7,1752161409.4005358,1,0,0
7,1752161409.501566,1,2,0
7,1752161409.602491,1,1,1
7,1752161409.7036867,1,0,0
7,1752161409.805368,1,1,1
7,1752161409.9069934,1,2,0
8,1752161411.186677,0,2,0
8,1752161411.2874298,0,0,1
8,1752161411.3884583,0,1,0
8,1752161411.4899387,0,1,0
8,1752161411.589982,0,0,1
8,1752161411.690372,0,2,0
8,1752161411.7916844,0,1,0
8,1752161411.8931322,0,0,1
8,1752161411.9947422,0,2,0
8,1752161412.0962768,0,1,0
8,1752161412.1982334,0,2,0
8,1752161412.299846,0,0,1
8,1752161412.400388,0,2,0
8,1752161412.501635,0,1,0
8,1752161412.602817,0,0,1
8,1752161412.704704,0,0,1
8,1752161412.8063116,0,2,0
8,1752161412.9074943,0,1,0
8,1752161413.0078192,0,0,1
8,1752161413.1090949,0,1,0
8,1752161413.211438,0,2,0
8,1752161413.313266,0,2,0
8,1752161413.414664,0,0,1
8,1752161413.5157516,0,1,0
8,1752161413.6167748,0,0,1
8,1752161413.7186835,0,1,0
8,1752161413.8205624,0,2,0
8,1752161413.9216514,0,2,0
8,1752161414.0233998,0,1,0
8,1752161414.1239371,0,0,1
8,1752161414.2254574,0,1,0
8,1752161414.327012,0,0,1
8,1752161414.4287434,0,2,0
8,1752161414.5298326,0,0,1
8,1752161414.6300786,0,2,0
8,1752161414.7312372,0,1,0
9,1752161415.8048697,0,1,0
9,1752161415.9057415,0,0,1
9,1752161416.0069213,0,2,0
9,1752161416.1085825,0,0,1
9,1752161416.2101126,0,2,0
9,1752161416.3106046,0,1,0
9,1752161416.4128993,0,1,0
9,1752161416.5147588,0,2,0
9,1752161416.6148088,0,0,1
9,1752161416.715304,0,2,0
9,1752161416.8167388,0,1,0
9,1752161416.9179497,0,0,1
9,1752161417.0189695,0,1,0
9,1752161417.1203465,0,0,1
9,1752161417.2218797,0,2,0
9,1752161417.3224785,0,2,0
9,1752161417.4232404,0,1,0
9,1752161417.5232947,0,0,1
9,1752161417.6242907,0,0,1
9,1752161417.7259815,0,2,0
9,1752161417.8278787,0,1,0
9,1752161417.9296432,0,2,0
9,1752161418.0319595,0,1,0
9,1752161418.1319897,0,0,1
9,1752161418.233686,0,2,0
9,1752161418.3347857,0,0,1
9,1752161418.4364114,0,1,0
9,1752161418.5381038,0,2,0
9,1752161418.6399379,0,1,0
9,1752161418.7413287,0,0,1
9,1752161418.8428817,0,0,1
9,1752161418.9439564,0,2,0
9,1752161419.0450115,0,1,0
9,1752161419.146748,0,0,1
9,1752161419.2478802,0,1,0
9,1752161419.349675,0,2,0
10,1752161420.6790922,2,2,1
10,1752161420.7792745,2,1,0
10,1752161420.881539,2,0,0
10,1752161420.9826999,2,0,0
10,1752161421.08465,2,1,0
10,1752161421.186146,2,2,1
10,1752161421.2873502,2,2,1
10,1752161421.3885841,2,1,0
10,1752161421.490116,2,0,0
10,1752161421.5903602,2,0,0
10,1752161421.6920822,2,1,0
10,1752161421.792473,2,2,1
10,1752161421.894322,2,0,0
10,1752161421.9953175,2,1,0
10,1752161422.0969462,2,2,1
10,1752161422.1985378,2,2,1
10,1752161422.3001246,2,1,0
10,1752161422.4005039,2,0,0
10,1752161422.5022204,2,1,0
10,1752161422.6033554,2,0,0
10,1752161422.7047145,2,2,1
10,1752161422.806571,2,1,0
10,1752161422.9080305,2,0,0
10,1752161423.00983,2,2,1
10,1752161423.1113417,2,2,1
10,1752161423.2126358,2,1,0
10,1752161423.3140934,2,0,0
10,1752161423.4159276,2,0,0
10,1752161423.517505,2,2,1
10,1752161423.6185644,2,1,0
10,1752161423.7203994,2,0,0
10,1752161423.821731,2,2,1
10,1752161423.922991,2,1,0
10,1752161424.0249386,2,1,0
10,1752161424.1266613,2,2,1
10,1752161424.2282422,2,0,0
11,1752161425.5074756,1,0,0
11,1752161425.6084595,1,1,1
11,1752161425.7101743,1,2,0
11,1752161425.8120997,1,0,0
11,1752161425.912391,1,1,1
11,1752161426.013589,1,2,0
11,1752161426.1142797,1,2,0
11,1752161426.2159448,1,1,1
11,1752161426.3176289,1,0,0
11,1752161426.4186406,1,2,0
11,1752161426.5198224,1,1,1
11,1752161426.620235,1,0,0
11,1752161426.722446,1,1,1
11,1752161426.8238668,1,2,0
11,1752161426.9254944,1,0,0
11,1752161427.0265005,1,2,0
11,1752161427.1279995,1,1,1
11,1752161427.2297187,1,0,0
11,1752161427.3302236,1,2,0
11,1752161427.4317875,1,0,0
11,1752161427.5327961,1,1,1
11,1752161427.6343532,1,2,0
11,1752161427.7359397,1,1,1
11,1752161427.8376772,1,0,0
11,1752161427.9396186,1,2,0
11,1752161428.0419426,1,0,0
11,1752161428.142578,1,1,1
11,1752161428.2443707,1,1,1
11,1752161428.3453784,1,2,0
11,1752161428.4468112,1,0,0
11,1752161428.546947,1,1,1
11,1752161428.6480277,1,0,0
11,1752161428.7497265,1,2,0
11,1752161428.8498864,1,2,0
11,1752161428.9501998,1,1,1
11,1752161429.0520558,1,0,0
12,1752161430.1745832,1,0,0
12,1752161430.2755246,1,1,1
12,1752161430.376735,1,2,0
12,1752161430.4779942,1,1,1
12,1752161430.579657,1,0,0
12,1752161430.6806133,1,2,0
12,1752161430.7829092,1,1,1
12,1752161430.8844738,1,2,0
12,1752161430.9856687,1,0,0
12,1752161431.0873854,1,0,0
12,1752161431.1884713,1,1,1
12,1752161431.2897077,1,2,0
12,1752161431.390188,1,0,0
12,1752161431.4920127,1,1,1
12,1752161431.5922625,1,2,0
12,1752161431.6942093,1,0,0
12,1752161431.7952418,1,2,0
12,1752161431.897185,1,1,1
12,1752161431.9972608,1,0,0
12,1752161432.0992134,1,1,1
12,1752161432.2001896,1,2,0
12,1752161432.3016388,1,0,0
12,1752161432.4023015,1,2,0
12,1752161432.5036309,1,1,1
12,1752161432.6054184,1,0,0
12,1752161432.7072172,1,2,0
12,1752161432.8083804,1,1,1
12,1752161432.9103558,1,1,1
12,1752161433.0120056,1,2,0
12,1752161433.1120713,1,0,0
12,1752161433.2140298,1,1,1
12,1752161433.3157682,1,0,0
12,1752161433.4176822,1,2,0
12,1752161433.519214,1,0,0
12,1752161433.6212876,1,1,1
12,1752161433.7225068,1,2,0
13,1752161435.0006204,2,0,0
13,1752161435.1012082,2,2,1
13,1752161435.2027185,2,1,0
13,1752161435.3040564,2,2,1
13,1752161435.4055007,2,0,0
13,1752161435.5070953,2,1,0
13,1752161435.6087143,2,1,0
13,1752161435.710551,2,2,1
13,1752161435.8125825,2,0,0
13,1752161435.9143715,2,2,1
13,1752161436.015657,2,1,0
13,1752161436.116367,2,0,0
13,1752161436.2182598,2,2,1
13,1752161436.3201215,2,0,0
13,1752161436.421529,2,1,0
13,1752161436.5232797,2,2,1
13,1752161436.6245732,2,1,0
13,1752161436.7261438,2,0,0
13,1752161436.8271725,2,1,0
13,1752161436.927662,2,2,1
13,1752161437.0292573,2,0,0
13,1752161437.1314898,2,2,1
13,1752161437.2329888,2,1,0
13,1752161437.334933,2,0,0
13,1752161437.4367597,2,0,0
13,1752161437.538201,2,1,0
13,1752161437.6400154,2,2,1
13,1752161437.7402718,2,2,1
13,1752161437.8419135,2,1,0
13,1752161437.9421148,2,0,0
13,1752161438.043699,2,1,0
13,1752161438.1452527,2,0,0
13,1752161438.2466476,2,2,1
13,1752161438.3479412,2,2,1
13,1752161438.4494514,2,1,0
13,1752161438.5517166,2,0,0
14,1752161439.6197622,0,0,1
14,1752161439.7199876,0,2,0
14,1752161439.8211734,0,1,0
14,1752161439.9228106,0,0,1
14,1752161440.0246677,0,2,0
14,1752161440.1260438,0,1,0
14,1752161440.2273538,0,0,1
14,1752161440.3289902,0,2,0
14,1752161440.430419,0,1,0
14,1752161440.5318406,0,0,1
14,1752161440.633732,0,1,0
14,1752161440.734885,0,2,0
14,1752161440.8364863,0,2,0
14,1752161440.9383864,0,0,1
14,1752161441.0398548,0,1,0
14,1752161441.1412814,0,2,0
14,1752161441.243223,0,1,0
14,1752161441.3450568,0,0,1
14,1752161441.4461243,0,1,0
14,1752161441.547448,0,0,1
14,1752161441.6486218,0,2,0
14,1752161441.750336,0,1,0
14,1752161441.85203,0,2,0
14,1752161441.9526472,0,0,1
14,1752161442.054578,0,0,1
14,1752161442.1565735,0,2,0
14,1752161442.2580721,0,1,0
14,1752161442.3594973,0,1,0
14,1752161442.4614816,0,0,1
14,1752161442.5623665,0,2,0
14,1752161442.6636348,0,0,1
14,1752161442.7650256,0,2,0
14,1752161442.8668873,0,1,0
14,1752161442.968866,0,0,1
14,1752161443.070321,0,2,0
14,1752161443.1713796,0,1,0
