trial,timestamp,target,stimulus,is_target
0,1752160924.136585,0,0,1
0,1752160924.237363,0,1,0
0,1752160924.3377354,0,2,0
0,1752160924.4396617,0,2,0
0,1752160924.5408568,0,0,1
0,1752160924.64204,0,1,0
0,1752160924.7432268,0,2,0
0,1752160924.8445523,0,0,1
0,1752160924.94596,0,1,0
0,1752160925.047818,0,2,0
0,1752160925.1496983,0,0,1
0,1752160925.251081,0,1,0
0,1752160925.352127,0,1,0
0,1752160925.4538012,0,0,1
0,1752160925.5557249,0,2,0
0,1752160925.6570954,0,1,0
0,1752160925.7575133,0,2,0
0,1752160925.8594885,0,0,1
0,1752160925.9598835,0,1,0
0,1752160926.061022,0,2,0
0,1752160926.162656,0,0,1
0,1752160926.2655566,0,1,0
0,1752160926.367351,0,0,1
0,1752160926.4675386,0,2,0
0,1752160926.568696,0,1,0
0,1752160926.6691556,0,2,0
0,1752160926.770418,0,0,1
0,1752160926.8717463,0,0,1
0,1752160926.9729376,0,2,0
0,1752160927.0742254,0,1,0
0,1752160927.1755533,0,1,0
0,1752160927.2767518,0,2,0
0,1752160927.3785655,0,0,1
0,1752160927.4798129,0,2,0
0,1752160927.581127,0,0,1
0,1752160927.682454,0,1,0
1,1752160929.6313136,2,1,0
1,1752160929.7320514,2,0,0
1,1752160929.833753,2,2,1
1,1752160929.9348876,2,1,0
1,1752160930.0366251,2,0,0
1,1752160930.1379783,2,2,1
1,1752160930.2393436,2,2,1
1,1752160930.340679,2,0,0
1,1752160930.4420662,2,1,0
1,1752160930.5440254,2,2,1
1,1752160930.6453512,2,0,0
1,1752160930.7466583,2,1,0
1,1752160930.8490832,2,2,1
1,1752160930.9501193,2,1,0
1,1752160931.0515332,2,0,0
1,1752160931.1529403,2,1,0
1,1752160931.2542918,2,2,1
1,1752160931.355859,2,0,0
1,1752160931.4571478,2,2,1
1,1752160931.557797,2,1,0
1,1752160931.6597977,2,0,0
1,1752160931.7611516,2,0,0
1,1752160931.8613043,2,2,1
1,1752160931.9632401,2,1,0
1,1752160932.0647616,2,1,0
1,1752160932.1666741,2,2,1
1,1752160932.2679052,2,0,0
1,1752160932.369918,2,0,0
1,1752160932.4713132,2,2,1
1,1752160932.5726907,2,1,0
1,1752160932.6740649,2,1,0
1,1752160932.775246,2,2,1
1,1752160932.876429,2,0,0
1,1752160932.9787183,2,1,0
1,1752160933.0791123,2,0,0
1,1752160933.1810052,2,2,1
2,1752160935.3376622,1,2,0
2,1752160935.4379358,1,1,1
2,1752160935.5398338,1,0,0
2,1752160935.6412308,1,2,0
2,1752160935.7426565,1,0,0
2,1752160935.8446314,1,1,1
2,1752160935.9459345,1,0,0
2,1752160936.0472715,1,1,1
2,1752160936.1476567,1,2,0
2,1752160936.2494767,1,1,1
2,1752160936.350484,1,0,0
2,1752160936.4518409,1,2,0
2,1752160936.553205,1,2,0
2,1752160936.6546938,1,0,0
2,1752160936.7559905,1,1,1
2,1752160936.8572452,1,1,1
2,1752160936.95764,1,2,0
2,1752160937.0596108,1,0,0
2,1752160937.16076,1,0,0
2,1752160937.2619128,1,2,0
2,1752160937.363281,1,1,1
2,1752160937.4647095,1,0,0
2,1752160937.565857,1,2,0
2,1752160937.6672497,1,1,1
2,1752160937.7675989,1,0,0
2,1752160937.869285,1,1,1
2,1752160937.9693308,1,2,0
2,1752160938.0711517,1,0,0
2,1752160938.1716053,1,2,0
2,1752160938.2729483,1,1,1
2,1752160938.3743515,1,2,0
2,1752160938.4756558,1,0,0
2,1752160938.5770223,1,1,1
2,1752160938.6774056,1,2,0
2,1752160938.7778308,1,1,1
2,1752160938.8798008,1,0,0
3,1752160940.3108869,2,0,0
3,1752160940.4111905,2,2,1
3,1752160940.512465,2,1,0
3,1752160940.613691,2,1,0
3,1752160940.7155235,2,2,1
3,1752160940.8174956,2,0,0
3,1752160940.9190247,2,2,1
3,1752160941.020988,2,1,0
3,1752160941.122283,2,0,0
3,1752160941.2234118,2,1,0
3,1752160941.324702,2,2,1
3,1752160941.4257486,2,0,0
3,1752160941.525927,2,2,1
3,1752160941.6259632,2,0,0
3,1752160941.7264013,2,1,0
3,1752160941.8278203,2,0,0
3,1752160941.9289875,2,1,0
3,1752160942.030214,2,2,1
3,1752160942.1320338,2,2,1
3,1752160942.233103,2,0,0
3,1752160942.3349707,2,1,0
3,1752160942.4366717,2,0,0
3,1752160942.538538,2,2,1
3,1752160942.639358,2,1,0
3,1752160942.7407312,2,2,1
3,1752160942.8425586,2,1,0
3,1752160942.9445004,2,0,0
3,1752160943.04582,2,1,0
3,1752160943.147096,2,2,1
3,1752160943.248551,2,0,0
3,1752160943.3489454,2,0,0
3,1752160943.4503694,2,2,1
3,1752160943.5514555,2,1,0
3,1752160943.6529748,2,0,0
3,1752160943.7547505,2,1,0
3,1752160943.856032,2,2,1
4,1752160945.8038068,1,0,0
4,1752160945.9041348,1,1,1
4,1752160946.00519,1,2,0
4,1752160946.1064758,1,0,0
4,1752160946.207492,1,2,0
4,1752160946.308533,1,1,1
4,1752160946.4089446,1,2,0
4,1752160946.510543,1,0,0
4,1752160946.6118982,1,1,1
4,1752160946.7131765,1,2,0
4,1752160946.8145368,1,1,1
4,1752160946.9164534,1,0,0
4,1752160947.0177999,1,0,0
4,1752160947.1197612,1,2,0
4,1752160947.221017,1,1,1
4,1752160947.3223786,1,0,0
4,1752160947.4234457,1,1,1
4,1752160947.5248883,1,2,0
4,1752160947.6262193,1,1,1
4,1752160947.7274182,1,0,0
4,1752160947.8288677,1,2,0
4,1752160947.9306037,1,1,1
4,1752160948.032599,1,0,0
4,1752160948.132983,1,2,0
4,1752160948.234895,1,1,1
4,1752160948.3362257,1,0,0
4,1752160948.4375541,1,2,0
4,1752160948.539432,1,1,1
4,1752160948.6395922,1,0,0
4,1752160948.7406309,1,2,0
4,1752160948.8418944,1,2,0
4,1752160948.9432979,1,0,0
4,1752160949.0446217,1,1,1
4,1752160949.1457224,1,0,0
4,1752160949.247138,1,1,1
4,1752160949.3475158,1,2,0
5,1752160951.0385945,0,1,0
5,1752160951.1399517,0,0,1
5,1752160951.2418935,0,2,0
5,1752160951.343784,0,1,0
5,1752160951.445157,0,0,1
5,1752160951.5464885,0,2,0
5,1752160951.6478124,0,1,0
5,1752160951.7492359,0,0,1
5,1752160951.85051,0,2,0
5,1752160951.952464,0,2,0
5,1752160952.0543585,0,1,0
5,1752160952.1557312,0,0,1
5,1752160952.2576206,0,2,0
5,1752160952.3590844,0,0,1
5,1752160952.4602811,0,1,0
5,1752160952.561646,0,2,0
5,1752160952.6630063,0,0,1
5,1752160952.7648451,0,1,0
5,1752160952.86677,0,1,0
5,1752160952.9688578,0,2,0
5,1752160953.0702765,0,0,1
5,1752160953.1715786,0,1,0
5,1752160953.2727337,0,2,0
5,1752160953.3740723,0,0,1
5,1752160953.4754684,0,0,1
5,1752160953.5774486,0,1,0
5,1752160953.6793053,0,2,0
5,1752160953.7795985,0,2,0
5,1752160953.880807,0,1,0
5,1752160953.9827573,0,0,1
5,1752160954.0839007,0,1,0
5,1752160954.1849654,0,0,1
5,1752160954.285998,0,2,0
5,1752160954.3870547,0,0,1
5,1752160954.4870975,0,2,0
5,1752160954.5875533,0,1,0
6,1752160963.0045004,1,2,0
6,1752160963.1049004,1,0,0
6,1752160963.2061563,1,1,1
6,1752160963.3075175,1,2,0
6,1752160963.4094608,1,1,1
6,1752160963.5107987,1,0,0
6,1752160963.6118312,1,1,1
6,1752160963.713099,1,2,0
6,1752160963.8142402,1,0,0
6,1752160963.9156086,1,1,1
6,1752160964.01703,1,2,0
6,1752160964.1185234,1,0,0
6,1752160964.2199392,1,1,1
6,1752160964.320905,1,0,0
6,1752160964.422772,1,2,0
6,1752160964.5246716,1,1,1
6,1752160964.6260984,1,2,0
6,1752160964.7277982,1,0,0
6,1752160964.8288422,1,1,1
6,1752160964.9290838,1,0,0
6,1752160965.0307863,1,2,0
6,1752160965.132753,1,0,0
6,1752160965.2343078,1,1,1
6,1752160965.336068,1,2,0
6,1752160965.4373112,1,0,0
6,1752160965.5375757,1,1,1
6,1752160965.6394482,1,2,0
6,1752160965.7406578,1,0,0
6,1752160965.841947,1,1,1
6,1752160965.943064,1,2,0
6,1752160966.0455694,1,1,1
6,1752160966.1458874,1,0,0
6,1752160966.2472434,1,2,0
6,1752160966.3478136,1,0,0
6,1752160966.4496663,1,1,1
6,1752160966.5514095,1,2,0
7,1752160967.8317604,2,0,0
7,1752160967.931791,2,1,0
7,1752160968.0331888,2,2,1
7,1752160968.1345189,2,0,0
7,1752160968.2359412,2,2,1
7,1752160968.3377688,2,1,0
7,1752160968.4396636,2,2,1
7,1752160968.5409124,2,1,0
7,1752160968.64224,2,0,0
7,1752160968.7437809,2,2,1
7,1752160968.8451126,2,1,0
7,1752160968.9470227,2,0,0
7,1752160969.0473619,2,1,0
7,1752160969.1474144,2,0,0
7,1752160969.2477155,2,2,1
7,1752160969.3495,2,2,1
7,1752160969.4508321,2,1,0
7,1752160969.5509522,2,0,0
7,1752160969.6528056,2,0,0
7,1752160969.7546053,2,1,0
7,1752160969.8563476,2,2,1
7,1752160969.958566,2,0,0
7,1752160970.0605395,2,1,0
7,1752160970.162336,2,2,1
7,1752160970.2637644,2,0,0
7,1752160970.36517,2,1,0
7,1752160970.4668086,2,2,1
7,1752160970.568598,2,1,0
7,1752160970.6695607,2,2,1
7,1752160970.7708724,2,0,0
7,1752160970.8722985,2,1,0
7,1752160970.9736426,2,0,0
7,1752160971.0748467,2,2,1
7,1752160971.1762383,2,1,0
7,1752160971.2774036,2,0,0
7,1752160971.3789632,2,2,1
8,1752160972.860547,0,2,0
8,1752160972.9613903,0,0,1
8,1752160973.0632832,0,1,0
8,1752160973.1651037,0,2,0
8,1752160973.266441,0,1,0
8,1752160973.3674605,0,0,1
8,1752160973.469031,0,0,1
8,1752160973.5695627,0,1,0
8,1752160973.6711822,0,2,0
8,1752160973.7730627,0,2,0
8,1752160973.8749762,0,0,1
8,1752160973.976328,0,1,0
8,1752160974.07771,0,2,0
8,1752160974.1789777,0,0,1
8,1752160974.280483,0,1,0
8,1752160974.381781,0,2,0
8,1752160974.4830687,0,0,1
8,1752160974.5844066,0,1,0
8,1752160974.6857817,0,0,1
8,1752160974.787086,0,1,0
8,1752160974.8874621,0,2,0
8,1752160974.9884684,0,2,0
8,1752160975.0898755,0,1,0
8,1752160975.1913118,0,0,1
8,1752160975.2927012,0,2,0
8,1752160975.39408,0,0,1
8,1752160975.496026,0,1,0
8,1752160975.5974329,0,1,0
8,1752160975.6993077,0,0,1
8,1752160975.7997131,0,2,0
8,1752160975.9011118,0,1,0
8,1752160976.0024452,0,2,0
8,1752160976.1038265,0,0,1
8,1752160976.2052302,0,2,0
8,1752160976.3065412,0,1,0
8,1752160976.4083748,0,0,1
9,1752160978.6602957,1,1,1
9,1752160978.7607248,1,2,0
9,1752160978.861874,1,0,0
9,1752160978.9637814,1,0,0
9,1752160979.0651422,1,1,1
9,1752160979.1664555,1,2,0
9,1752160979.268338,1,2,0
9,1752160979.368678,1,0,0
9,1752160979.4700532,1,1,1
9,1752160979.5718508,1,0,0
9,1752160979.6731713,1,2,0
9,1752160979.7742066,1,1,1
9,1752160979.8752546,1,2,0
9,1752160979.9772139,1,1,1
9,1752160980.0773654,1,0,0
9,1752160980.1789582,1,0,0
9,1752160980.2789586,1,1,1
9,1752160980.380087,1,2,0
9,1752160980.48165,1,2,0
9,1752160980.5830774,1,0,0
9,1752160980.6842504,1,1,1
9,1752160980.7853034,1,0,0
9,1752160980.886681,1,2,0
9,1752160980.9886208,1,1,1
9,1752160981.0902276,1,1,1
9,1752160981.1916006,1,0,0
9,1752160981.292976,1,2,0
9,1752160981.3944125,1,1,1
9,1752160981.4958231,1,0,0
9,1752160981.5972352,1,2,0
9,1752160981.6983054,1,0,0
9,1752160981.7987294,1,2,0
9,1752160981.900053,1,1,1
9,1752160982.0011964,1,0,0
9,1752160982.1026163,1,1,1
9,1752160982.203961,1,2,0
10,1752160984.6143625,2,0,0
10,1752160984.715338,2,1,0
10,1752160984.8165088,2,2,1
10,1752160984.9190319,2,2,1
10,1752160985.0192919,2,0,0
10,1752160985.1203566,2,1,0
10,1752160985.2216852,2,2,1
10,1752160985.323114,2,1,0
10,1752160985.4248343,2,0,0
10,1752160985.5267181,2,1,0
10,1752160985.6286418,2,2,1
10,1752160985.730503,2,0,0
10,1752160985.831695,2,1,0
10,1752160985.9336026,2,0,0
10,1752160986.0353918,2,2,1
10,1752160986.1373794,2,0,0
10,1752160986.2391274,2,1,0
10,1752160986.340125,2,2,1
10,1752160986.441178,2,1,0
10,1752160986.54306,2,2,1
10,1752160986.6442475,2,0,0
10,1752160986.7460072,2,2,1
10,1752160986.8473573,2,1,0
10,1752160986.9487286,2,0,0
10,1752160987.0506098,2,0,0
10,1752160987.151993,2,2,1
10,1752160987.2531507,2,1,0
10,1752160987.3545547,2,2,1
10,1752160987.4559355,2,0,0
10,1752160987.5561929,2,1,0
10,1752160987.6577208,2,1,0
10,1752160987.7589238,2,2,1
10,1752160987.8592873,2,0,0
10,1752160987.960783,2,0,0
10,1752160988.0621622,2,2,1
10,1752160988.163399,2,1,0
11,1752160989.7526643,0,0,1
11,1752160989.8531191,0,1,0
11,1752160989.9545228,0,2,0
11,1752160990.0564759,0,1,0
11,1752160990.1567194,0,2,0
11,1752160990.258122,0,0,1
11,1752160990.3588536,0,1,0
11,1752160990.4607275,0,2,0
11,1752160990.5625443,0,0,1
11,1752160990.6642756,0,0,1
11,1752160990.7657032,0,1,0
11,1752160990.8674817,0,2,0
11,1752160990.968841,0,1,0
11,1752160991.0707636,0,0,1
11,1752160991.171949,0,2,0
11,1752160991.2729335,0,0,1
11,1752160991.374633,0,1,0
11,1752160991.4765222,0,2,0
11,1752160991.5776105,0,0,1
11,1752160991.679589,0,2,0
11,1752160991.7814498,0,1,0
11,1752160991.8831708,0,2,0
11,1752160991.9841962,0,1,0
11,1752160992.0852332,0,0,1
11,1752160992.1872318,0,1,0
11,1752160992.2890759,0,0,1
11,1752160992.3911028,0,2,0
11,1752160992.4930465,0,1,0
11,1752160992.5943782,0,2,0
11,1752160992.696267,0,0,1
11,1752160992.797575,0,0,1
11,1752160992.899395,0,2,0
11,1752160993.0006924,0,1,0
11,1752160993.10175,0,2,0
11,1752160993.2027905,0,1,0
11,1752160993.3038428,0,0,1
12,1752160995.5584447,0,2,0
12,1752160995.658782,0,1,0
12,1752160995.7602487,0,0,1
12,1752160995.8616009,0,1,0
12,1752160995.9619148,0,2,0
12,1752160996.0623434,0,0,1
12,1752160996.1642158,0,0,1
12,1752160996.2645948,0,1,0
12,1752160996.3660219,0,2,0
12,1752160996.467352,0,0,1
12,1752160996.569131,0,2,0
12,1752160996.6694798,0,1,0
12,1752160996.770894,0,0,1
12,1752160996.8726995,0,2,0
12,1752160996.9740415,0,1,0
12,1752160997.075429,0,0,1
12,1752160997.176856,0,1,0
12,1752160997.277274,0,2,0
12,1752160997.3792315,0,1,0
12,1752160997.4799752,0,0,1
12,1752160997.5814755,0,2,0
12,1752160997.6828988,0,2,0
12,1752160997.7833178,0,1,0
12,1752160997.8846946,0,0,1
12,1752160997.986074,0,2,0
12,1752160998.0874376,0,0,1
12,1752160998.1893876,0,1,0
12,1752160998.2907646,0,1,0
12,1752160998.3920832,0,2,0
12,1752160998.4936035,0,0,1
12,1752160998.5947697,0,0,1
12,1752160998.6960983,0,2,0
12,1752160998.7974033,0,1,0
12,1752160998.8987586,0,2,0
12,1752160999.0001554,0,1,0
12,1752160999.1015425,0,0,1
13,1752161001.205783,1,0,0
13,1752161001.3061197,1,1,1
13,1752161001.407502,1,2,0
13,1752161001.5088966,1,0,0
13,1752161001.6102626,1,1,1
13,1752161001.7114944,1,2,0
13,1752161001.812824,1,0,0
13,1752161001.9146311,1,2,0
13,1752161002.0159788,1,1,1
13,1752161002.1184208,1,0,0
13,1752161002.2198498,1,1,1
13,1752161002.3210855,1,2,0
13,1752161002.4224656,1,2,0
13,1752161002.5236566,1,0,0
13,1752161002.6248024,1,1,1
13,1752161002.7265885,1,1,1
13,1752161002.828498,1,2,0
13,1752161002.9295263,1,0,0
13,1752161003.0305617,1,2,0
13,1752161003.1323686,1,0,0
13,1752161003.2337248,1,1,1
13,1752161003.334096,1,2,0
13,1752161003.4355214,1,0,0
13,1752161003.5374005,1,1,1
13,1752161003.6389873,1,1,1
13,1752161003.739513,1,2,0
13,1752161003.8413324,1,0,0
13,1752161003.942752,1,2,0
13,1752161004.0441778,1,0,0
13,1752161004.1455073,1,1,1
13,1752161004.2469146,1,2,0
13,1752161004.3473282,1,1,1
13,1752161004.4490886,1,0,0
13,1752161004.5494413,1,2,0
13,1752161004.6506257,1,1,1
13,1752161004.7519667,1,0,0
14,1752161006.5456817,2,0,0
14,1752161006.6458511,2,1,0
14,1752161006.7483644,2,2,1
14,1752161006.8496282,2,2,1
14,1752161006.9510252,2,0,0
14,1752161007.052444,2,1,0
14,1752161007.1537933,2,0,0
14,1752161007.2551763,2,1,0
14,1752161007.3562312,2,2,1
14,1752161007.4575732,2,0,0
14,1752161007.5593896,2,2,1
14,1752161007.6607907,2,1,0
14,1752161007.7622006,2,1,0
14,1752161007.863474,2,2,1
14,1752161007.9653943,2,0,0
14,1752161008.0668209,2,1,0
14,1752161008.1671975,2,2,1
14,1752161008.2675424,2,0,0
14,1752161008.3695154,2,1,0
14,1752161008.4709287,2,2,1
14,1752161008.5723426,2,0,0
14,1752161008.6733959,2,2,1
14,1752161008.7747617,2,0,0
14,1752161008.8767369,2,1,0
14,1752161008.977173,2,2,1
14,1752161009.0774684,2,0,0
14,1752161009.1793828,2,1,0
14,1752161009.2807813,2,1,0
14,1752161009.3822207,2,2,1
14,1752161009.483978,2,0,0
14,1752161009.5851772,2,1,0
14,1752161009.686603,2,2,1
14,1752161009.7885504,2,0,0
14,1752161009.8896604,2,1,0
14,1752161009.9920685,2,0,0
14,1752161010.094017,2,2,1
