trial,timestamp,target,stimulus,is_target
0,158.9990234375,2,0,0
0,159.2998046875,2,2,1
0,159.599609375,2,1,0
0,159.8994140625,2,0,0
0,160.19921875,2,1,0
0,160.4990234375,2,2,1
0,160.7998046875,2,0,0
0,161.099609375,2,1,0
0,161.3994140625,2,2,1
0,161.69921875,2,1,0
0,161.9990234375,2,0,0
0,162.2998046875,2,2,1
0,162.599609375,2,1,0
0,162.8994140625,2,0,0
0,163.19921875,2,2,1
0,163.4990234375,2,2,1
0,163.7998046875,2,0,0
0,164.099609375,2,1,0
0,164.3994140625,2,0,0
0,164.69921875,2,2,1
0,164.9990234375,2,1,0
0,165.2998046875,2,1,0
0,165.599609375,2,2,1
0,165.8994140625,2,0,0
0,166.19921875,2,1,0
0,166.4990234375,2,2,1
0,166.7998046875,2,0,0
0,167.099609375,2,0,0
0,167.3994140625,2,1,0
0,167.69921875,2,2,1
0,167.9990234375,2,1,0
0,168.2998046875,2,0,0
0,168.599609375,2,2,1
0,168.8994140625,2,1,0
0,169.19921875,2,0,0
0,169.4990234375,2,2,1
1,174.599609375,1,1,1
1,174.8994140625,1,0,0
1,175.19921875,1,2,0
1,175.4990234375,1,2,0
1,175.7998046875,1,0,0
1,176.099609375,1,1,1
1,176.3994140625,1,1,1
1,176.69921875,1,0,0
1,176.9990234375,1,2,0
1,177.2998046875,1,0,0
1,177.599609375,1,1,1
1,177.8994140625,1,2,0
1,178.19921875,1,0,0
1,178.4990234375,1,1,1
1,178.7998046875,1,2,0
1,179.099609375,1,0,0
1,179.3994140625,1,2,0
1,179.69921875,1,1,1
1,179.9990234375,1,2,0
1,180.2998046875,1,0,0
1,180.599609375,1,1,1
1,180.8994140625,1,1,1
1,181.19921875,1,2,0
1,181.4990234375,1,0,0
1,181.7998046875,1,2,0
1,182.099609375,1,1,1
1,182.3994140625,1,0,0
1,182.69921875,1,0,0
1,182.9990234375,1,2,0
1,183.2998046875,1,1,1
1,183.599609375,1,2,0
1,183.8994140625,1,0,0
1,184.19921875,1,1,1
1,184.4990234375,1,2,0
1,184.7998046875,1,0,0
1,185.099609375,1,1,1
2,189.599609375,0,1,0
2,189.8994140625,0,2,0
2,190.19921875,0,0,1
2,190.4990234375,0,0,1
2,190.7998046875,0,1,0
2,191.099609375,0,2,0
2,191.3994140625,0,2,0
2,191.69921875,0,1,0
2,191.9990234375,0,0,1
2,192.2998046875,0,0,1
2,192.599609375,0,2,0
2,192.8994140625,0,1,0
2,193.19921875,0,1,0
2,193.4990234375,0,0,1
2,193.7998046875,0,2,0
2,194.099609375,0,2,0
2,194.3994140625,0,1,0
2,194.69921875,0,0,1
2,194.9990234375,0,2,0
2,195.2998046875,0,1,0
2,195.599609375,0,0,1
2,195.8994140625,0,1,0
2,196.19921875,0,0,1
2,196.4990234375,0,2,0
2,196.7998046875,0,1,0
2,197.099609375,0,0,1
2,197.3994140625,0,2,0
2,197.69921875,0,2,0
2,197.9990234375,0,0,1
2,198.2998046875,0,1,0
2,198.599609375,0,1,0
2,198.8994140625,0,2,0
2,199.19921875,0,0,1
2,199.4990234375,0,1,0
2,199.7998046875,0,0,1
2,200.099609375,0,2,0
3,205.19921875,2,1,0
3,205.4990234375,2,2,1
3,205.7998046875,2,0,0
3,206.099609375,2,2,1
3,206.3994140625,2,1,0
3,206.69921875,2,0,0
3,206.9990234375,2,1,0
3,207.2998046875,2,2,1
3,207.599609375,2,0,0
3,207.8994140625,2,2,1
3,208.19921875,2,1,0
3,208.4990234375,2,0,0
3,208.7998046875,2,0,0
3,209.099609375,2,1,0
3,209.3994140625,2,2,1
3,209.69921875,2,0,0
3,209.9990234375,2,2,1
3,210.2998046875,2,1,0
3,210.599609375,2,2,1
3,210.8994140625,2,0,0
3,211.19921875,2,1,0
3,211.4990234375,2,0,0
3,211.7998046875,2,1,0
3,212.099609375,2,2,1
3,212.3994140625,2,2,1
3,212.69921875,2,0,0
3,212.9990234375,2,1,0
3,213.2998046875,2,1,0
3,213.599609375,2,2,1
3,213.8994140625,2,0,0
3,214.19921875,2,1,0
3,214.4990234375,2,2,1
3,214.7998046875,2,0,0
3,215.099609375,2,0,0
3,215.3994140625,2,1,0
3,215.69921875,2,2,1
4,218.9990234375,0,2,0
4,219.2998046875,0,0,1
4,219.599609375,0,1,0
4,219.8994140625,0,1,0
4,220.19921875,0,2,0
4,220.4990234375,0,0,1
4,220.7998046875,0,1,0
4,221.099609375,0,0,1
4,221.3994140625,0,2,0
4,221.69921875,0,0,1
4,221.9990234375,0,2,0
4,222.2998046875,0,1,0
4,222.599609375,0,1,0
4,222.8994140625,0,2,0
4,223.19921875,0,0,1
4,223.4990234375,0,2,0
4,223.7998046875,0,0,1
4,224.099609375,0,1,0
4,224.3994140625,0,0,1
4,224.69921875,0,2,0
4,224.9990234375,0,1,0
4,225.2998046875,0,2,0
4,225.599609375,0,1,0
4,225.8994140625,0,0,1
4,226.19921875,0,2,0
4,226.4990234375,0,1,0
4,226.7998046875,0,0,1
4,227.099609375,0,0,1
4,227.3994140625,0,2,0
4,227.69921875,0,1,0
4,227.9990234375,0,1,0
4,228.2998046875,0,0,1
4,228.599609375,0,2,0
4,228.8994140625,0,1,0
4,229.19921875,0,2,0
4,229.4990234375,0,0,1
5,233.9990234375,1,1,1
5,234.2998046875,1,2,0
5,234.599609375,1,0,0
5,234.8994140625,1,1,1
5,235.19921875,1,2,0
5,235.4990234375,1,0,0
5,235.7998046875,1,2,0
5,236.099609375,1,1,1
5,236.3994140625,1,0,0
5,236.69921875,1,0,0
5,236.9990234375,1,1,1
5,237.2998046875,1,2,0
5,237.599609375,1,2,0
5,237.8994140625,1,0,0
5,238.19921875,1,1,1
5,238.4990234375,1,0,0
5,238.7998046875,1,2,0
5,239.099609375,1,1,1
5,239.3994140625,1,0,0
5,239.69921875,1,1,1
5,239.9990234375,1,2,0
5,240.2998046875,1,0,0
5,240.599609375,1,1,1
5,240.8994140625,1,2,0
5,241.19921875,1,2,0
5,241.4990234375,1,1,1
5,241.7998046875,1,0,0
5,242.099609375,1,0,0
5,242.3994140625,1,2,0
5,242.69921875,1,1,1
5,242.9990234375,1,2,0
5,243.2998046875,1,0,0
5,243.599609375,1,1,1
5,243.8994140625,1,0,0
5,244.19921875,1,1,1
5,244.4990234375,1,2,0
6,248.099609375,2,2,1
6,248.3994140625,2,0,0
6,248.69921875,2,1,0
6,248.9990234375,2,2,1
6,249.2998046875,2,0,0
6,249.599609375,2,1,0
6,249.8994140625,2,0,0
6,250.19921875,2,1,0
6,250.4990234375,2,2,1
6,250.7998046875,2,1,0
6,251.099609375,2,0,0
6,251.3994140625,2,2,1
6,251.69921875,2,0,0
6,251.9990234375,2,1,0
6,252.2998046875,2,2,1
6,252.599609375,2,2,1
6,252.8994140625,2,1,0
6,253.19921875,2,0,0
6,253.4990234375,2,2,1
6,253.7998046875,2,0,0
6,254.099609375,2,1,0
6,254.3994140625,2,0,0
6,254.69921875,2,2,1
6,254.9990234375,2,1,0
6,255.2998046875,2,2,1
6,255.599609375,2,0,0
6,255.8994140625,2,1,0
6,256.19921875,2,2,1
6,256.4990234375,2,1,0
6,256.7998046875,2,0,0
6,257.099609375,2,1,0
6,257.3994140625,2,0,0
6,257.69921875,2,2,1
6,257.9990234375,2,2,1
6,258.2998046875,2,1,0
6,258.599609375,2,0,0
7,262.4990234375,0,2,0
7,262.7998046875,0,1,0
7,263.099609375,0,0,1
7,263.3994140625,0,2,0
7,263.69921875,0,1,0
7,263.9990234375,0,0,1
7,264.2998046875,0,2,0
7,264.599609375,0,0,1
7,264.8994140625,0,1,0
7,265.19921875,0,0,1
7,265.4990234375,0,1,0
7,265.7998046875,0,2,0
7,266.099609375,0,0,1
7,266.3994140625,0,1,0
7,266.69921875,0,2,0
7,266.9990234375,0,2,0
7,267.2998046875,0,1,0
7,267.599609375,0,0,1
7,267.8994140625,0,0,1
7,268.19921875,0,2,0
7,268.4990234375,0,1,0
7,268.7998046875,0,1,0
7,269.099609375,0,2,0
7,269.3994140625,0,0,1
7,269.69921875,0,1,0
7,269.9990234375,0,2,0
7,270.2998046875,0,0,1
7,270.599609375,0,1,0
7,270.8994140625,0,2,0
7,271.19921875,0,0,1
7,271.4990234375,0,2,0
7,271.7998046875,0,1,0
7,272.099609375,0,0,1
7,272.3994140625,0,1,0
7,272.69921875,0,0,1
7,272.9990234375,0,2,0
8,277.19921875,1,2,0
8,277.4990234375,1,0,0
8,277.7998046875,1,1,1
8,278.099609375,1,0,0
8,278.3994140625,1,1,1
8,278.69921875,1,2,0
8,278.9990234375,1,1,1
8,279.2998046875,1,2,0
8,279.599609375,1,0,0
8,279.8994140625,1,2,0
8,280.19921875,1,0,0
8,280.4990234375,1,1,1
8,280.7998046875,1,2,0
8,281.099609375,1,0,0
8,281.3994140625,1,1,1
8,281.69921875,1,2,0
8,281.9990234375,1,0,0
8,282.2998046875,1,1,1
8,282.599609375,1,2,0
8,282.8994140625,1,1,1
8,283.19921875,1,0,0
8,283.4990234375,1,1,1
8,283.7998046875,1,2,0
8,284.099609375,1,0,0
8,284.3994140625,1,1,1
8,284.69921875,1,0,0
8,284.9990234375,1,2,0
8,285.2998046875,1,0,0
8,285.599609375,1,1,1
8,285.8994140625,1,2,0
8,286.19921875,1,0,0
8,286.4990234375,1,2,0
8,286.7998046875,1,1,1
8,287.099609375,1,1,1
8,287.3994140625,1,2,0
8,287.69921875,1,0,0
9,291.8994140625,1,0,0
9,292.19921875,1,2,0
9,292.4990234375,1,1,1
9,292.7998046875,1,2,0
9,293.099609375,1,1,1
9,293.3994140625,1,0,0
9,293.69921875,1,0,0
9,293.9990234375,1,2,0
9,294.2998046875,1,1,1
9,294.599609375,1,0,0
9,294.8994140625,1,1,1
9,295.19921875,1,2,0
9,295.4990234375,1,2,0
9,295.7998046875,1,1,1
9,296.099609375,1,0,0
9,296.3994140625,1,0,0
9,296.69921875,1,1,1
9,296.9990234375,1,2,0
9,297.2998046875,1,1,1
9,297.599609375,1,2,0
9,297.8994140625,1,0,0
9,298.19921875,1,2,0
9,298.4990234375,1,0,0
9,298.7998046875,1,1,1
9,299.099609375,1,0,0
9,299.3994140625,1,1,1
9,299.69921875,1,2,0
9,299.9990234375,1,0,0
9,300.2998046875,1,2,0
9,300.599609375,1,1,1
9,300.8994140625,1,0,0
9,301.19921875,1,1,1
9,301.4990234375,1,2,0
9,301.7998046875,1,1,1
9,302.099609375,1,2,0
9,302.3994140625,1,0,0
10,305.9990234375,0,0,1
10,306.2998046875,0,2,0
10,306.599609375,0,1,0
10,306.8994140625,0,2,0
10,307.19921875,0,0,1
10,307.4990234375,0,1,0
10,307.7998046875,0,1,0
10,308.099609375,0,2,0
10,308.3994140625,0,0,1
10,308.69921875,0,2,0
10,308.9990234375,0,0,1
10,309.2998046875,0,1,0
10,309.599609375,0,1,0
10,309.8994140625,0,0,1
10,310.19921875,0,2,0
10,310.4990234375,0,2,0
10,310.7998046875,0,0,1
10,311.099609375,0,1,0
10,311.3994140625,0,2,0
10,311.69921875,0,1,0
10,311.9990234375,0,0,1
10,312.2998046875,0,1,0
10,312.599609375,0,2,0
10,312.8994140625,0,0,1
10,313.19921875,0,0,1
10,313.4990234375,0,2,0
10,313.7998046875,0,1,0
10,314.099609375,0,1,0
10,314.3994140625,0,2,0
10,314.69921875,0,0,1
10,314.9990234375,0,2,0
10,315.2998046875,0,1,0
10,315.599609375,0,0,1
10,315.8994140625,0,1,0
10,316.19921875,0,0,1
10,316.4990234375,0,2,0
11,325.4990234375,2,1,0
11,325.7998046875,2,2,1
11,326.099609375,2,0,0
11,326.3994140625,2,1,0
11,326.69921875,2,2,1
11,326.9990234375,2,0,0
11,327.2998046875,2,2,1
11,327.599609375,2,0,0
11,327.8994140625,2,1,0
11,328.19921875,2,0,0
11,328.4990234375,2,2,1
11,328.7998046875,2,1,0
11,329.099609375,2,2,1
11,329.3994140625,2,1,0
11,329.69921875,2,0,0
11,329.9990234375,2,1,0
11,330.2998046875,2,0,0
11,330.599609375,2,2,1
11,330.8994140625,2,0,0
11,331.19921875,2,1,0
11,331.4990234375,2,2,1
11,331.7998046875,2,1,0
11,332.099609375,2,0,0
11,332.3994140625,2,2,1
11,332.69921875,2,0,0
11,332.9990234375,2,1,0
11,333.2998046875,2,2,1
11,333.599609375,2,2,1
11,333.8994140625,2,0,0
11,334.19921875,2,1,0
11,334.4990234375,2,0,0
11,334.7998046875,2,2,1
11,335.099609375,2,1,0
11,335.3994140625,2,1,0
11,335.69921875,2,2,1
11,335.9990234375,2,0,0
12,340.19921875,2,2,1
12,340.4990234375,2,0,0
12,340.7998046875,2,1,0
12,341.099609375,2,1,0
12,341.3994140625,2,0,0
12,341.69921875,2,2,1
12,341.9990234375,2,1,0
12,342.2998046875,2,0,0
12,342.599609375,2,2,1
12,342.8994140625,2,1,0
12,343.19921875,2,2,1
12,343.4990234375,2,0,0
12,343.7998046875,2,1,0
12,344.099609375,2,0,0
12,344.3994140625,2,2,1
12,344.69921875,2,0,0
12,344.9990234375,2,2,1
12,345.2998046875,2,1,0
12,345.599609375,2,0,0
12,345.8994140625,2,2,1
12,346.19921875,2,1,0
12,346.4990234375,2,0,0
12,346.7998046875,2,2,1
12,347.099609375,2,1,0
12,347.3994140625,2,0,0
12,347.69921875,2,1,0
12,347.9990234375,2,2,1
12,348.2998046875,2,2,1
12,348.599609375,2,0,0
12,348.8994140625,2,1,0
12,349.19921875,2,1,0
12,349.4990234375,2,0,0
12,349.7998046875,2,2,1
12,350.099609375,2,2,1
12,350.3994140625,2,1,0
12,350.69921875,2,0,0
13,354.2998046875,1,0,0
13,354.599609375,1,1,1
13,354.8994140625,1,2,0
13,355.19921875,1,2,0
13,355.4990234375,1,1,1
13,355.7998046875,1,0,0
13,356.099609375,1,2,0
13,356.3994140625,1,0,0
13,356.69921875,1,1,1
13,356.9990234375,1,2,0
13,357.2998046875,1,0,0
13,357.599609375,1,1,1
13,357.8994140625,1,0,0
13,358.19921875,1,1,1
13,358.4990234375,1,2,0
13,358.7998046875,1,2,0
13,359.099609375,1,1,1
13,359.3994140625,1,0,0
13,359.69921875,1,2,0
13,359.9990234375,1,0,0
13,360.2998046875,1,1,1
13,360.599609375,1,1,1
13,360.8994140625,1,2,0
13,361.19921875,1,0,0
13,361.4990234375,1,0,0
13,361.7998046875,1,2,0
13,362.099609375,1,1,1
13,362.3994140625,1,0,0
13,362.69921875,1,2,0
13,362.9990234375,1,1,1
13,363.2998046875,1,2,0
13,363.599609375,1,1,1
13,363.8994140625,1,0,0
13,364.19921875,1,1,1
13,364.4990234375,1,2,0
13,364.7998046875,1,0,0
14,368.3994140625,0,1,0
14,368.69921875,0,2,0
14,368.9990234375,0,0,1
14,369.2998046875,0,2,0
14,369.599609375,0,1,0
14,369.8994140625,0,0,1
14,370.19921875,0,2,0
14,370.4990234375,0,1,0
14,370.7998046875,0,0,1
14,371.099609375,0,2,0
14,371.3994140625,0,0,1
14,371.69921875,0,1,0
14,371.9990234375,0,1,0
14,372.2998046875,0,0,1
14,372.599609375,0,2,0
14,372.8994140625,0,1,0
14,373.19921875,0,0,1
14,373.4990234375,0,2,0
14,373.7998046875,0,1,0
14,374.099609375,0,0,1
14,374.3994140625,0,2,0
14,374.69921875,0,0,1
14,374.9990234375,0,2,0
14,375.2998046875,0,1,0
14,375.599609375,0,1,0
14,375.8994140625,0,2,0
14,376.19921875,0,0,1
14,376.4990234375,0,2,0
14,376.7998046875,0,1,0
14,377.099609375,0,0,1
14,377.3994140625,0,1,0
14,377.69921875,0,0,1
14,377.9990234375,0,2,0
14,378.2998046875,0,1,0
14,378.599609375,0,0,1
14,378.8994140625,0,2,0
15,383.099609375,1,2,0
15,383.3994140625,1,0,0
15,383.69921875,1,1,1
15,383.9990234375,1,1,1
15,384.2998046875,1,2,0
15,384.599609375,1,0,0
15,384.8994140625,1,1,1
15,385.19921875,1,2,0
15,385.4990234375,1,0,0
15,385.7998046875,1,1,1
15,386.099609375,1,0,0
15,386.3994140625,1,2,0
15,386.69921875,1,2,0
15,386.9990234375,1,1,1
15,387.2998046875,1,0,0
15,387.599609375,1,1,1
15,387.8994140625,1,0,0
15,388.19921875,1,2,0
15,388.4990234375,1,0,0
15,388.7998046875,1,2,0
15,389.099609375,1,1,1
15,389.3994140625,1,0,0
15,389.69921875,1,1,1
15,389.9990234375,1,2,0
15,390.2998046875,1,0,0
15,390.599609375,1,2,0
15,390.8994140625,1,1,1
15,391.19921875,1,0,0
15,391.4990234375,1,1,1
15,391.7998046875,1,2,0
15,392.099609375,1,0,0
15,392.3994140625,1,2,0
15,392.69921875,1,1,1
15,392.9990234375,1,1,1
15,393.2998046875,1,0,0
15,393.599609375,1,2,0
16,397.7998046875,0,2,0
16,398.099609375,0,1,0
16,398.3994140625,0,0,1
16,398.69921875,0,2,0
16,398.9990234375,0,0,1
16,399.2998046875,0,1,0
16,399.599609375,0,0,1
16,399.8994140625,0,2,0
16,400.19921875,0,1,0
16,400.4990234375,0,1,0
16,400.7998046875,0,0,1
16,401.099609375,0,2,0
16,401.3994140625,0,0,1
16,401.69921875,0,1,0
16,401.9990234375,0,2,0
16,402.2998046875,0,0,1
16,402.599609375,0,2,0
16,402.8994140625,0,1,0
16,403.19921875,0,1,0
16,403.4990234375,0,2,0
16,403.7998046875,0,0,1
16,404.099609375,0,0,1
16,404.3994140625,0,1,0
16,404.69921875,0,2,0
16,404.9990234375,0,1,0
16,405.2998046875,0,2,0
16,405.599609375,0,0,1
16,405.8994140625,0,0,1
16,406.19921875,0,1,0
16,406.4990234375,0,2,0
16,406.7998046875,0,1,0
16,407.099609375,0,2,0
16,407.3994140625,0,0,1
16,407.69921875,0,1,0
16,407.9990234375,0,0,1
16,408.2998046875,0,2,0
17,412.7998046875,2,1,0
17,413.099609375,2,2,1
17,413.3994140625,2,0,0
17,413.69921875,2,0,0
17,413.9990234375,2,2,1
17,414.2998046875,2,1,0
17,414.599609375,2,1,0
17,414.8994140625,2,2,1
17,415.19921875,2,0,0
17,415.4990234375,2,0,0
17,415.7998046875,2,2,1
17,416.099609375,2,1,0
17,416.3994140625,2,1,0
17,416.69921875,2,0,0
17,416.9990234375,2,2,1
17,417.2998046875,2,2,1
17,417.599609375,2,0,0
17,417.8994140625,2,1,0
17,418.19921875,2,2,1
17,418.4990234375,2,1,0
17,418.7998046875,2,0,0
17,419.099609375,2,1,0
17,419.3994140625,2,0,0
17,419.69921875,2,2,1
17,419.9990234375,2,2,1
17,420.2998046875,2,1,0
17,420.599609375,2,0,0
17,420.8994140625,2,0,0
17,421.19921875,2,1,0
17,421.4990234375,2,2,1
17,421.7998046875,2,0,0
17,422.099609375,2,2,1
17,422.3994140625,2,1,0
17,422.69921875,2,0,0
17,422.9990234375,2,1,0
17,423.2998046875,2,2,1
18,427.7998046875,1,2,0
18,428.099609375,1,0,0
18,428.3994140625,1,1,1
18,428.69921875,1,1,1
18,428.9990234375,1,0,0
18,429.2998046875,1,2,0
18,429.599609375,1,0,0
18,429.8994140625,1,1,1
18,430.19921875,1,2,0
18,430.4990234375,1,1,1
18,430.7998046875,1,2,0
18,431.099609375,1,0,0
18,431.3994140625,1,2,0
18,431.69921875,1,1,1
18,431.9990234375,1,0,0
18,432.2998046875,1,1,1
18,432.599609375,1,0,0
18,432.8994140625,1,2,0
18,433.19921875,1,2,0
18,433.4990234375,1,0,0
18,433.7998046875,1,1,1
18,434.099609375,1,0,0
18,434.3994140625,1,1,1
18,434.69921875,1,2,0
18,434.9990234375,1,1,1
18,435.2998046875,1,2,0
18,435.599609375,1,0,0
18,435.8994140625,1,1,1
18,436.19921875,1,2,0
18,436.4990234375,1,0,0
18,436.7998046875,1,0,0
18,437.099609375,1,1,1
18,437.3994140625,1,2,0
18,437.69921875,1,0,0
18,437.9990234375,1,1,1
18,438.2998046875,1,2,0
19,442.19921875,0,1,0
19,442.4990234375,0,0,1
19,442.7998046875,0,2,0
19,443.099609375,0,0,1
19,443.3994140625,0,1,0
19,443.69921875,0,2,0
19,443.9990234375,0,0,1
19,444.2998046875,0,2,0
19,444.599609375,0,1,0
19,444.8994140625,0,2,0
19,445.19921875,0,0,1
19,445.4990234375,0,1,0
19,445.7998046875,0,1,0
19,446.099609375,0,2,0
19,446.3994140625,0,0,1
19,446.69921875,0,1,0
19,446.9990234375,0,0,1
19,447.2998046875,0,2,0
19,447.599609375,0,0,1
19,447.8994140625,0,1,0
19,448.19921875,0,2,0
19,448.4990234375,0,2,0
19,448.7998046875,0,0,1
19,449.099609375,0,1,0
19,449.3994140625,0,0,1
19,449.69921875,0,1,0
19,449.9990234375,0,2,0
19,450.2998046875,0,2,0
19,450.599609375,0,0,1
19,450.8994140625,0,1,0
19,451.19921875,0,0,1
19,451.4990234375,0,1,0
19,451.7998046875,0,2,0
19,452.099609375,0,2,0
19,452.3994140625,0,1,0
19,452.69921875,0,0,1
20,458.099609375,2,0,0
20,458.3994140625,2,1,0
20,458.69921875,2,2,1
20,458.9990234375,2,1,0
20,459.2998046875,2,0,0
20,459.599609375,2,2,1
20,459.8994140625,2,1,0
20,460.19921875,2,0,0
20,460.4990234375,2,2,1
20,460.7998046875,2,0,0
20,461.099609375,2,1,0
20,461.3994140625,2,2,1
20,461.69921875,2,2,1
20,461.9990234375,2,0,0
20,462.2998046875,2,1,0
20,462.599609375,2,1,0
20,462.8994140625,2,0,0
20,463.19921875,2,2,1
20,463.4990234375,2,0,0
20,463.7998046875,2,1,0
20,464.099609375,2,2,1
20,464.3994140625,2,1,0
20,464.69921875,2,0,0
20,464.9990234375,2,2,1
20,465.2998046875,2,1,0
20,465.599609375,2,2,1
20,465.8994140625,2,0,0
20,466.19921875,2,1,0
20,466.4990234375,2,2,1
20,466.7998046875,2,0,0
20,467.099609375,2,2,1
20,467.3994140625,2,0,0
20,467.69921875,2,1,0
20,467.9990234375,2,0,0
20,468.2998046875,2,1,0
20,468.599609375,2,2,1
21,472.4990234375,2,0,0
21,472.7998046875,2,2,1
21,473.099609375,2,1,0
21,473.3994140625,2,0,0
21,473.69921875,2,2,1
21,473.9990234375,2,1,0
21,474.2998046875,2,2,1
21,474.599609375,2,1,0
21,474.8994140625,2,0,0
21,475.19921875,2,0,0
21,475.4990234375,2,1,0
21,475.7998046875,2,2,1
21,476.099609375,2,2,1
21,476.3994140625,2,1,0
21,476.69921875,2,0,0
21,476.9990234375,2,0,0
21,477.2998046875,2,1,0
21,477.599609375,2,2,1
21,477.8994140625,2,0,0
21,478.19921875,2,2,1
21,478.4990234375,2,1,0
21,478.7998046875,2,0,0
21,479.099609375,2,2,1
21,479.3994140625,2,1,0
21,479.69921875,2,0,0
21,479.9990234375,2,2,1
21,480.2998046875,2,1,0
21,480.599609375,2,2,1
21,480.8994140625,2,0,0
21,481.19921875,2,1,0
21,481.4990234375,2,0,0
21,481.7998046875,2,1,0
21,482.099609375,2,2,1
21,482.3994140625,2,2,1
21,482.69921875,2,0,0
21,482.9990234375,2,1,0
22,487.19921875,0,0,1
22,487.4990234375,0,1,0
22,487.7998046875,0,2,0
22,488.099609375,0,1,0
22,488.3994140625,0,0,1
22,488.69921875,0,2,0
22,488.9990234375,0,1,0
22,489.2998046875,0,0,1
22,489.599609375,0,2,0
22,489.8994140625,0,1,0
22,490.19921875,0,2,0
22,490.4990234375,0,0,1
22,490.7998046875,0,1,0
22,491.099609375,0,0,1
22,491.3994140625,0,2,0
22,491.69921875,0,0,1
22,491.9990234375,0,2,0
22,492.2998046875,0,1,0
22,492.599609375,0,0,1
22,492.8994140625,0,1,0
22,493.19921875,0,2,0
22,493.4990234375,0,0,1
22,493.7998046875,0,1,0
22,494.099609375,0,2,0
22,494.3994140625,0,2,0
22,494.69921875,0,1,0
22,494.9990234375,0,0,1
22,495.2998046875,0,1,0
22,495.599609375,0,2,0
22,495.8994140625,0,0,1
22,496.19921875,0,2,0
22,496.4990234375,0,1,0
22,496.7998046875,0,0,1
22,497.099609375,0,1,0
22,497.3994140625,0,0,1
22,497.69921875,0,2,0
23,502.19921875,1,1,1
23,502.4990234375,1,2,0
23,502.7998046875,1,0,0
23,503.099609375,1,1,1
23,503.3994140625,1,0,0
23,503.69921875,1,2,0
23,503.9990234375,1,1,1
23,504.2998046875,1,2,0
23,504.599609375,1,0,0
23,504.8994140625,1,2,0
23,505.19921875,1,1,1
23,505.4990234375,1,0,0
23,505.7998046875,1,1,1
23,506.099609375,1,0,0
23,506.3994140625,1,2,0
23,506.69921875,1,1,1
23,506.9990234375,1,0,0
23,507.2998046875,1,2,0
23,507.599609375,1,0,0
23,507.8994140625,1,2,0
23,508.19921875,1,1,1
23,508.4990234375,1,2,0
23,508.7998046875,1,1,1
23,509.099609375,1,0,0
23,509.3994140625,1,1,1
23,509.69921875,1,2,0
23,509.9990234375,1,0,0
23,510.2998046875,1,2,0
23,510.599609375,1,1,1
23,510.8994140625,1,0,0
23,511.19921875,1,1,1
23,511.4990234375,1,2,0
23,511.7998046875,1,0,0
23,512.099609375,1,2,0
23,512.3994140625,1,1,1
23,512.69921875,1,0,0
24,516.8994140625,0,0,1
24,517.19921875,0,2,0
24,517.4990234375,0,1,0
24,517.7998046875,0,2,0
24,518.099609375,0,0,1
24,518.3994140625,0,1,0
24,518.69921875,0,2,0
24,518.9990234375,0,0,1
24,519.2998046875,0,1,0
24,519.599609375,0,1,0
24,519.8994140625,0,2,0
24,520.19921875,0,0,1
24,520.4990234375,0,2,0
24,520.7998046875,0,1,0
24,521.099609375,0,0,1
24,521.3994140625,0,1,0
24,521.69921875,0,2,0
24,521.9990234375,0,0,1
24,522.2998046875,0,2,0
24,522.599609375,0,0,1
24,522.8994140625,0,1,0
24,523.19921875,0,0,1
24,523.4990234375,0,2,0
24,523.7998046875,0,1,0
24,524.099609375,0,1,0
24,524.3994140625,0,0,1
24,524.69921875,0,2,0
24,524.9990234375,0,0,1
24,525.2998046875,0,2,0
24,525.599609375,0,1,0
24,525.8994140625,0,1,0
24,526.19921875,0,0,1
24,526.4990234375,0,2,0
24,526.7998046875,0,0,1
24,527.099609375,0,2,0
24,527.3994140625,0,1,0
25,532.7998046875,1,1,1
25,533.099609375,1,2,0
25,533.3994140625,1,0,0
25,533.69921875,1,1,1
25,533.9990234375,1,2,0
25,534.2998046875,1,0,0
25,534.599609375,1,0,0
25,534.8994140625,1,2,0
25,535.19921875,1,1,1
25,535.4990234375,1,2,0
25,535.7998046875,1,1,1
25,536.099609375,1,0,0
25,536.3994140625,1,2,0
25,536.69921875,1,1,1
25,536.9990234375,1,0,0
25,537.2998046875,1,0,0
25,537.599609375,1,2,0
25,537.8994140625,1,1,1
25,538.19921875,1,1,1
25,538.4990234375,1,0,0
25,538.7998046875,1,2,0
25,539.099609375,1,2,0
25,539.3994140625,1,1,1
25,539.69921875,1,0,0
25,539.9990234375,1,0,0
25,540.2998046875,1,1,1
25,540.599609375,1,2,0
25,540.8994140625,1,0,0
25,541.19921875,1,2,0
25,541.4990234375,1,1,1
25,541.7998046875,1,0,0
25,542.099609375,1,2,0
25,542.3994140625,1,1,1
25,542.69921875,1,1,1
25,542.9990234375,1,2,0
25,543.2998046875,1,0,0
26,548.3994140625,2,0,0
26,548.69921875,2,2,1
26,548.9990234375,2,1,0
26,549.2998046875,2,1,0
26,549.599609375,2,0,0
26,549.8994140625,2,2,1
26,550.19921875,2,1,0
26,550.4990234375,2,0,0
26,550.7998046875,2,2,1
26,551.099609375,2,2,1
26,551.3994140625,2,0,0
26,551.69921875,2,1,0
26,551.9990234375,2,1,0
26,552.2998046875,2,0,0
26,552.599609375,2,2,1
26,552.8994140625,2,0,0
26,553.19921875,2,2,1
26,553.4990234375,2,1,0
26,553.7998046875,2,0,0
26,554.099609375,2,1,0
26,554.3994140625,2,2,1
26,554.69921875,2,1,0
26,554.9990234375,2,2,1
26,555.2998046875,2,0,0
26,555.599609375,2,1,0
26,555.8994140625,2,0,0
26,556.19921875,2,2,1
26,556.4990234375,2,2,1
26,556.7998046875,2,0,0
26,557.099609375,2,1,0
26,557.3994140625,2,1,0
26,557.69921875,2,0,0
26,557.9990234375,2,2,1
26,558.2998046875,2,0,0
26,558.599609375,2,2,1
26,558.8994140625,2,1,0
27,572.099609375,1,1,1
27,572.3994140625,1,2,0
27,572.69921875,1,0,0
27,572.9990234375,1,1,1
27,573.2998046875,1,2,0
27,573.599609375,1,0,0
27,573.8994140625,1,1,1
27,574.19921875,1,0,0
27,574.4990234375,1,2,0
27,574.7998046875,1,1,1
27,575.099609375,1,0,0
27,575.3994140625,1,2,0
27,575.69921875,1,0,0
27,575.9990234375,1,1,1
27,576.2998046875,1,2,0
27,576.599609375,1,0,0
27,576.8994140625,1,1,1
27,577.19921875,1,2,0
27,577.4990234375,1,0,0
27,577.7998046875,1,2,0
27,578.099609375,1,1,1
27,578.3994140625,1,1,1
27,578.69921875,1,2,0
27,578.9990234375,1,0,0
27,579.2998046875,1,0,0
27,579.599609375,1,1,1
27,579.8994140625,1,2,0
27,580.19921875,1,1,1
27,580.4990234375,1,2,0
27,580.7998046875,1,0,0
27,581.099609375,1,0,0
27,581.3994140625,1,1,1
27,581.69921875,1,2,0
27,581.9990234375,1,0,0
27,582.2998046875,1,2,0
27,582.599609375,1,1,1
28,589.19921875,2,1,0
28,589.4990234375,2,0,0
28,589.7998046875,2,2,1
28,590.099609375,2,0,0
28,590.3994140625,2,2,1
28,590.69921875,2,1,0
28,590.9990234375,2,2,1
28,591.2998046875,2,1,0
28,591.599609375,2,0,0
28,591.8994140625,2,1,0
28,592.19921875,2,2,1
28,592.4990234375,2,0,0
28,592.7998046875,2,0,0
28,593.099609375,2,1,0
28,593.3994140625,2,2,1
28,593.69921875,2,2,1
28,593.9990234375,2,1,0
28,594.2998046875,2,0,0
28,594.599609375,2,1,0
28,594.8994140625,2,2,1
28,595.19921875,2,0,0
28,595.4990234375,2,1,0
28,595.7998046875,2,0,0
28,596.099609375,2,2,1
28,596.3994140625,2,1,0
28,596.69921875,2,0,0
28,596.9990234375,2,2,1
28,597.2998046875,2,1,0
28,597.599609375,2,2,1
28,597.8994140625,2,0,0
28,598.19921875,2,2,1
28,598.4990234375,2,0,0
28,598.7998046875,2,1,0
28,599.099609375,2,1,0
28,599.3994140625,2,0,0
28,599.69921875,2,2,1
29,603.599609375,0,1,0
29,603.8994140625,0,2,0
29,604.19921875,0,0,1
29,604.4990234375,0,0,1
29,604.7998046875,0,1,0
29,605.099609375,0,2,0
29,605.3994140625,0,2,0
29,605.69921875,0,1,0
29,605.9990234375,0,0,1
29,606.2998046875,0,1,0
29,606.599609375,0,2,0
29,606.8994140625,0,0,1
29,607.19921875,0,1,0
29,607.4990234375,0,2,0
29,607.7998046875,0,0,1
29,608.099609375,0,1,0
29,608.3994140625,0,2,0
29,608.69921875,0,0,1
29,608.9990234375,0,2,0
29,609.2998046875,0,0,1
29,609.599609375,0,1,0
29,609.8994140625,0,0,1
29,610.19921875,0,2,0
29,610.4990234375,0,1,0
29,610.7998046875,0,2,0
29,611.099609375,0,1,0
29,611.3994140625,0,0,1
29,611.69921875,0,0,1
29,611.9990234375,0,2,0
29,612.2998046875,0,1,0
29,612.599609375,0,1,0
29,612.8994140625,0,0,1
29,613.19921875,0,2,0
29,613.4990234375,0,2,0
29,613.7998046875,0,0,1
29,614.099609375,0,1,0
