trial,timestamp,target,stimulus,is_target
0,1752423475.298492,2,0,0
0,1752423475.4999225,2,1,0
0,1752423475.7024055,2,2,1
0,1752423475.9044218,2,1,0
0,1752423476.106389,2,2,1
0,1752423476.3083756,2,0,0
0,1752423476.5098374,2,0,0
0,1752423476.7122958,2,1,0
0,1752423476.9147546,2,2,1
0,1752423477.1177185,2,2,1
0,1752423477.3201773,2,0,0
0,1752423477.5222366,2,1,0
0,1752423477.724795,2,2,1
0,1752423477.9267857,2,1,0
0,1752423478.129278,2,0,0
0,1752423478.331703,2,1,0
0,1752423478.5341632,2,2,1
0,1752423478.73662,2,0,0
0,1752423478.939663,2,2,1
0,1752423479.1420891,2,0,0
0,1752423479.3445961,2,1,0
0,1752423479.546594,2,2,1
0,1752423479.7490215,2,0,0
0,1752423479.9514782,2,1,0
0,1752423480.1544714,2,0,0
0,1752423480.3559494,2,2,1
0,1752423480.559379,2,1,0
0,1752423480.7613583,2,2,1
0,1752423480.964547,2,0,0
0,1752423481.1660302,2,1,0
0,1752423481.3684857,2,2,1
0,1752423481.5709713,2,1,0
0,1752423481.7734015,2,0,0
0,1752423481.9758756,2,2,1
0,1752423482.1793337,2,0,0
0,1752423482.3827882,2,1,0
1,1752423484.1573906,1,2,0
1,1752423484.358344,1,1,1
1,1752423484.560331,1,0,0
1,1752423484.7621133,1,0,0
1,1752423484.9650905,1,1,1
1,1752423485.1675484,1,2,0
1,1752423485.370518,1,1,1
1,1752423485.5739741,1,2,0
1,1752423485.776938,1,0,0
1,1752423485.9784248,1,1,1
1,1752423486.1814127,1,0,0
1,1752423486.384396,1,2,0
1,1752423486.5854955,1,1,1
1,1752423486.7889535,1,0,0
1,1752423486.991162,1,2,0
1,1752423487.1936204,1,1,1
1,1752423487.3960295,1,2,0
1,1752423487.5984895,1,0,0
1,1752423487.801943,1,0,0
1,1752423488.0039096,1,2,0
1,1752423488.2063816,1,1,1
1,1752423488.4098737,1,1,1
1,1752423488.611306,1,2,0
1,1752423488.813765,1,0,0
1,1752423489.0160742,1,0,0
1,1752423489.218529,1,2,0
1,1752423489.4209874,1,1,1
1,1752423489.6235433,1,1,1
1,1752423489.8256047,1,0,0
1,1752423490.0290039,1,2,0
1,1752423490.230492,1,2,0
1,1752423490.4329233,1,0,0
1,1752423490.6361156,1,1,1
1,1752423490.8385687,1,2,0
1,1752423491.0400655,1,0,0
1,1752423491.2420363,1,1,1
2,1752423492.9681377,0,2,0
2,1752423493.1691248,0,1,0
2,1752423493.3715851,0,0,1
2,1752423493.5740433,0,0,1
2,1752423493.7765005,0,2,0
2,1752423493.9789593,0,1,0
2,1752423494.1814182,0,1,0
2,1752423494.382879,0,2,0
2,1752423494.58544,0,0,1
2,1752423494.7897458,0,1,0
2,1752423494.9912071,0,2,0
2,1752423495.1936655,0,0,1
2,1752423495.395711,0,2,0
2,1752423495.5981655,0,0,1
2,1752423495.801621,0,1,0
2,1752423496.0037465,0,2,0
2,1752423496.206675,0,0,1
2,1752423496.41017,0,1,0
2,1752423496.6121407,0,1,0
2,1752423496.8155947,0,2,0
2,1752423497.0170555,0,0,1
2,1752423497.2195158,0,0,1
2,1752423497.4220076,0,1,0
2,1752423497.6244588,0,2,0
2,1752423497.8274455,0,1,0
2,1752423498.030902,0,2,0
2,1752423498.232393,0,0,1
2,1752423498.4348226,0,2,0
2,1752423498.6372797,0,0,1
2,1752423498.8397384,0,1,0
2,1752423499.0421963,0,0,1
2,1752423499.2456527,0,1,0
2,1752423499.447602,0,2,0
2,1752423499.6500607,0,1,0
2,1752423499.8525188,0,0,1
2,1752423500.0559752,0,2,0
3,1752423501.884244,1,1,1
3,1752423502.0868464,1,2,0
3,1752423502.2893047,1,0,0
3,1752423502.4917634,1,1,1
3,1752423502.6942213,1,2,0
3,1752423502.896191,1,0,0
3,1752423503.0986466,1,1,1
3,1752423503.3011048,1,0,0
3,1752423503.5025663,1,2,0
3,1752423503.7065275,1,2,0
3,1752423503.908027,1,1,1
3,1752423504.1095288,1,0,0
3,1752423504.3119886,1,1,1
3,1752423504.5144458,1,2,0
3,1752423504.7169044,1,0,0
3,1752423504.919363,1,2,0
3,1752423505.1218982,1,0,0
3,1752423505.3243241,1,1,1
3,1752423505.5287833,1,0,0
3,1752423505.730846,1,2,0
3,1752423505.9333048,1,1,1
3,1752423506.1368415,1,1,1
3,1752423506.3402994,1,2,0
3,1752423506.5432782,1,0,0
3,1752423506.7442365,1,2,0
3,1752423506.946202,1,0,0
3,1752423507.1491673,1,1,1
3,1752423507.3506286,1,1,1
3,1752423507.5534232,1,2,0
3,1752423507.7558823,1,0,0
3,1752423507.9583414,1,1,1
3,1752423508.161828,1,2,0
3,1752423508.3632576,1,0,0
3,1752423508.5652475,1,0,0
3,1752423508.7677062,1,1,1
3,1752423508.9707193,1,2,0
4,1752423510.801932,2,1,0
4,1752423511.003394,2,2,1
4,1752423511.2057865,2,0,0
4,1752423511.4074495,2,1,0
4,1752423511.6104476,2,0,0
4,1752423511.8128734,2,2,1
4,1752423512.015107,2,0,0
4,1752423512.217562,2,2,1
4,1752423512.4200468,2,1,0
4,1752423512.6225047,2,2,1
4,1752423512.8249364,2,1,0
4,1752423513.0279055,2,0,0
4,1752423513.2298746,2,2,1
4,1752423513.4323325,2,0,0
4,1752423513.6343617,2,1,0
4,1752423513.8368187,2,0,0
4,1752423514.039244,2,2,1
4,1752423514.2422557,2,1,0
4,1752423514.4452634,2,2,1
4,1752423514.6472466,2,1,0
4,1752423514.849792,2,0,0
4,1752423515.0517495,2,0,0
4,1752423515.2552056,2,1,0
4,1752423515.4566674,2,2,1
4,1752423515.6591592,2,2,1
4,1752423515.8615837,2,1,0
4,1752423516.0646675,2,0,0
4,1752423516.2671177,2,0,0
4,1752423516.4688714,2,2,1
4,1752423516.6703324,2,1,0
4,1752423516.8727903,2,2,1
4,1752423517.07576,2,1,0
4,1752423517.2782192,2,0,0
4,1752423517.4801846,2,2,1
4,1752423517.682193,2,0,0
4,1752423517.8851733,2,1,0
5,1752423519.866561,0,1,0
5,1752423520.0683887,0,0,1
5,1752423520.2714033,0,2,0
5,1752423520.47448,0,1,0
5,1752423520.6759274,0,0,1
5,1752423520.878387,0,2,0
5,1752423521.0798466,0,1,0
5,1752423521.2823074,0,0,1
5,1752423521.4847646,0,2,0
5,1752423521.688221,0,0,1
5,1752423521.891677,0,2,0
5,1752423522.0948875,0,1,0
5,1752423522.2973664,0,1,0
5,1752423522.499823,0,2,0
5,1752423522.7032797,0,0,1
5,1752423522.9047396,0,2,0
5,1752423523.1081963,0,0,1
5,1752423523.3111606,0,1,0
5,1752423523.5146334,0,2,0
5,1752423523.7165923,0,0,1
5,1752423523.9190483,0,1,0
5,1752423524.1210303,0,1,0
5,1752423524.3234868,0,0,1
5,1752423524.5254695,0,2,0
5,1752423524.727925,0,0,1
5,1752423524.930418,0,1,0
5,1752423525.1328418,0,2,0
5,1752423525.3353004,0,0,1
5,1752423525.5372674,0,1,0
5,1752423525.7402842,0,2,0
5,1752423525.943291,0,0,1
5,1752423526.1451025,0,2,0
5,1752423526.3470714,0,1,0
5,1752423526.5495305,0,2,0
5,1752423526.7519882,0,0,1
5,1752423526.9554436,0,1,0
6,1752423528.7862349,2,1,0
6,1752423528.9882143,2,0,0
6,1752423529.1904213,2,2,1
6,1752423529.392882,2,1,0
6,1752423529.596465,2,0,0
6,1752423529.798924,2,2,1
6,1752423530.0013838,2,2,1
6,1752423530.202869,2,1,0
6,1752423530.4048154,2,0,0
6,1752423530.6072729,2,1,0
6,1752423530.8093102,2,0,0
6,1752423531.0113688,2,2,1
6,1752423531.2134342,2,2,1
6,1752423531.4158645,2,1,0
6,1752423531.6183243,2,0,0
6,1752423531.8197844,2,2,1
6,1752423532.0212579,2,1,0
6,1752423532.224242,2,0,0
6,1752423532.4277246,2,2,1
6,1752423532.6309898,2,0,0
6,1752423532.833449,2,1,0
6,1752423533.035907,2,2,1
6,1752423533.2393646,2,1,0
6,1752423533.4408488,2,0,0
6,1752423533.6423182,2,1,0
6,1752423533.844335,2,0,0
6,1752423534.0473387,2,2,1
6,1752423534.2497973,2,2,1
6,1752423534.452256,2,1,0
6,1752423534.6547163,2,0,0
6,1752423534.8571725,2,0,0
6,1752423535.0596328,2,1,0
6,1752423535.2620907,2,2,1
6,1752423535.4646227,2,1,0
6,1752423535.6667118,2,0,0
6,1752423535.8696866,2,2,1
7,1752423537.7461941,1,2,0
7,1752423537.9476552,1,1,1
7,1752423538.1497114,1,0,0
7,1752423538.352177,1,0,0
7,1752423538.554603,1,2,0
7,1752423538.7570632,1,1,1
7,1752423538.9595206,1,2,0
7,1752423539.1620119,1,1,1
7,1752423539.3650482,1,0,0
7,1752423539.5675116,1,2,0
7,1752423539.7704742,1,1,1
7,1752423539.9724438,1,0,0
7,1752423540.174901,1,0,0
7,1752423540.3773608,1,2,0
7,1752423540.5798192,1,1,1
7,1752423540.7812796,1,0,0
7,1752423540.9831417,1,1,1
7,1752423541.1856775,1,2,0
7,1752423541.3891168,1,2,0
7,1752423541.5917883,1,1,1
7,1752423541.7947342,1,0,0
7,1752423541.996184,1,2,0
7,1752423542.1986437,1,1,1
7,1752423542.400104,1,0,0
7,1752423542.602563,1,1,1
7,1752423542.8055758,1,0,0
7,1752423543.007037,1,2,0
7,1752423543.2100327,1,0,0
7,1752423543.4124582,1,2,0
7,1752423543.614917,1,1,1
7,1752423543.8174038,1,1,1
7,1752423544.0206108,1,0,0
7,1752423544.2220726,1,2,0
7,1752423544.4248817,1,0,0
7,1752423544.6273186,1,2,0
7,1752423544.830378,1,1,1
8,1752423546.9721906,0,1,0
8,1752423547.1746538,0,2,0
8,1752423547.3767552,0,0,1
8,1752423547.5797203,0,2,0
8,1752423547.7821836,0,1,0
8,1752423547.9846368,0,0,1
8,1752423548.1870973,0,0,1
8,1752423548.3890626,0,1,0
8,1752423548.592097,0,2,0
8,1752423548.7960954,0,2,0
8,1752423548.9989161,0,0,1
8,1752423549.2018776,0,1,0
8,1752423549.404314,0,2,0
8,1752423549.6067972,0,0,1
8,1752423549.8092318,0,1,0
8,1752423550.0126877,0,2,0
8,1752423550.214148,0,0,1
8,1752423550.416117,0,1,0
8,1752423550.6184924,0,2,0
8,1752423550.820975,0,1,0
8,1752423551.0234375,0,0,1
8,1752423551.225865,0,2,0
8,1752423551.42832,0,1,0
8,1752423551.6303709,0,0,1
8,1752423551.8343322,0,0,1
8,1752423552.0362074,0,2,0
8,1752423552.2386365,0,1,0
8,1752423552.4420922,0,0,1
8,1752423552.6445491,0,2,0
8,1752423552.848005,0,1,0
8,1752423553.0514605,0,0,1
8,1752423553.2529237,0,2,0
8,1752423553.454954,0,1,0
8,1752423553.6573746,0,1,0
8,1752423553.860829,0,0,1
8,1752423554.0622907,0,2,0
9,1752423555.9922214,0,1,0
9,1752423556.1944907,0,2,0
9,1752423556.3964522,0,0,1
9,1752423556.599907,0,0,1
9,1752423556.8023636,0,1,0
9,1752423557.0043302,0,2,0
9,1752423557.2063088,0,1,0
9,1752423557.408316,0,2,0
9,1752423557.6102827,0,0,1
9,1752423557.8127427,0,0,1
9,1752423558.014711,0,1,0
9,1752423558.2161722,0,2,0
9,1752423558.4186318,0,2,0
9,1752423558.620597,0,0,1
9,1752423558.8226054,0,1,0
9,1752423559.024067,0,2,0
9,1752423559.2265384,0,1,0
9,1752423559.428995,0,0,1
9,1752423559.6314535,0,2,0
9,1752423559.833911,0,1,0
9,1752423560.0358808,0,0,1
9,1752423560.238336,0,0,1
9,1752423560.4413068,0,2,0
9,1752423560.6433144,0,1,0
9,1752423560.8468015,0,1,0
9,1752423561.0492294,0,0,1
9,1752423561.2527168,0,2,0
9,1752423561.4546847,0,2,0
9,1752423561.657142,0,1,0
9,1752423561.8596008,0,0,1
9,1752423562.0620854,0,0,1
9,1752423562.2640612,0,2,0
9,1752423562.4665198,0,1,0
9,1752423562.6689441,0,1,0
9,1752423562.8709605,0,0,1
9,1752423563.0734189,0,2,0
10,1752423564.7987578,2,1,0
10,1752423565.0002124,2,0,0
10,1752423565.2026763,2,2,1
10,1752423565.4061337,2,1,0
10,1752423565.6075933,2,0,0
10,1752423565.8090537,2,2,1
10,1752423566.0115125,2,2,1
10,1752423566.2129984,2,0,0
10,1752423566.4155014,2,1,0
10,1752423566.6179574,2,2,1
10,1752423566.8209195,2,0,0
10,1752423567.0233908,2,1,0
10,1752423567.2261474,2,0,0
10,1752423567.428604,2,2,1
10,1752423567.6310632,2,1,0
10,1752423567.834517,2,1,0
10,1752423568.0369756,2,0,0
10,1752423568.2394593,2,2,1
10,1752423568.4424589,2,2,1
10,1752423568.644947,2,1,0
10,1752423568.847613,2,0,0
10,1752423569.0495105,2,1,0
10,1752423569.2530017,2,0,0
10,1752423569.4544272,2,2,1
10,1752423569.6578834,2,1,0
10,1752423569.8593445,2,2,1
10,1752423570.061353,2,0,0
10,1752423570.264351,2,1,0
10,1752423570.4676461,2,0,0
10,1752423570.670106,2,2,1
10,1752423570.8725636,2,1,0
10,1752423571.0750527,2,2,1
10,1752423571.2774801,2,0,0
10,1752423571.479939,2,1,0
10,1752423571.6833987,2,0,0
10,1752423571.8853796,2,2,1
11,1752423573.6611462,1,0,0
11,1752423573.862116,1,2,0
11,1752423574.0645735,1,1,1
11,1752423574.2675385,1,0,0
11,1752423574.469998,1,1,1
11,1752423574.6714575,1,2,0
11,1752423574.8744395,1,1,1
11,1752423575.0768974,1,2,0
11,1752423575.2788665,1,0,0
11,1752423575.4813237,1,2,0
11,1752423575.6847801,1,1,1
11,1752423575.8882358,1,0,0
11,1752423576.0926888,1,2,0
11,1752423576.2951477,1,0,0
11,1752423576.4976065,1,1,1
11,1752423576.700068,1,0,0
11,1752423576.9020333,1,2,0
11,1752423577.1044898,1,1,1
11,1752423577.307946,1,2,0
11,1752423577.510404,1,1,1
11,1752423577.712373,1,0,0
11,1752423577.9139118,1,1,1
11,1752423578.1157892,1,0,0
11,1752423578.3172731,1,2,0
11,1752423578.5197053,1,2,0
11,1752423578.7221901,1,0,0
11,1752423578.9246225,1,1,1
11,1752423579.1280787,1,1,1
11,1752423579.32954,1,0,0
11,1752423579.5325956,1,2,0
11,1752423579.7345817,1,2,0
11,1752423579.93655,1,1,1
11,1752423580.1390343,1,0,0
11,1752423580.3414936,1,1,1
11,1752423580.544596,1,2,0
11,1752423580.747032,1,0,0
12,1752423582.265942,0,2,0
12,1752423582.467404,0,1,0
12,1752423582.6698956,0,0,1
12,1752423582.8718653,0,0,1
12,1752423583.074324,0,2,0
12,1752423583.2772894,0,1,0
12,1752423583.4797487,0,2,0
12,1752423583.6822069,0,1,0
12,1752423583.884665,0,0,1
12,1752423584.0866356,0,2,0
12,1752423584.2900882,0,1,0
12,1752423584.4921532,0,0,1
12,1752423584.6951628,0,2,0
12,1752423584.8968472,0,1,0
12,1752423585.099307,0,0,1
12,1752423585.3017402,0,1,0
12,1752423585.504743,0,0,1
12,1752423585.7071962,0,2,0
12,1752423585.909655,0,2,0
12,1752423586.1121137,0,1,0
12,1752423586.313574,0,0,1
12,1752423586.5155866,0,0,1
12,1752423586.7186542,0,2,0
12,1752423586.9227276,0,1,0
12,1752423587.1252732,0,2,0
12,1752423587.3277328,0,0,1
12,1752423587.530223,0,1,0
12,1752423587.73366,0,1,0
12,1752423587.9351373,0,2,0
12,1752423588.1376698,0,0,1
12,1752423588.3401284,0,0,1
12,1752423588.5416737,0,1,0
12,1752423588.7441552,0,2,0
12,1752423588.9466126,0,1,0
12,1752423589.1490722,0,2,0
12,1752423589.3525276,0,0,1
13,1752423591.1284177,1,1,1
13,1752423591.3293855,1,2,0
13,1752423591.5320978,1,0,0
13,1752423591.7335582,1,2,0
13,1752423591.935101,1,1,1
13,1752423592.1371014,1,0,0
13,1752423592.339036,1,2,0
13,1752423592.5404968,1,0,0
13,1752423592.7429554,1,1,1
13,1752423592.9459279,1,0,0
13,1752423593.148388,1,2,0
13,1752423593.3506315,1,1,1
13,1752423593.5530899,1,0,0
13,1752423593.756234,1,1,1
13,1752423593.9582012,1,2,0
13,1752423594.1606588,1,0,0
13,1752423594.363119,1,1,1
13,1752423594.5660846,1,2,0
13,1752423594.7675457,1,0,0
13,1752423594.9697204,1,1,1
13,1752423595.1712098,1,2,0
13,1752423595.3746376,1,0,0
13,1752423595.5766106,1,2,0
13,1752423595.7800632,1,1,1
13,1752423595.981529,1,0,0
13,1752423596.1849868,1,2,0
13,1752423596.3864455,1,1,1
13,1752423596.5889177,1,1,1
13,1752423596.7923641,1,0,0
13,1752423596.995501,1,2,0
13,1752423597.1979566,1,0,0
13,1752423597.4002445,1,2,0
13,1752423597.6022124,1,1,1
13,1752423597.8056676,1,2,0
13,1752423598.00713,1,1,1
13,1752423598.209589,1,0,0
14,1752423599.9883504,2,2,1
14,1752423600.1898801,2,1,0
14,1752423600.3913424,2,0,0
14,1752423600.5943284,2,1,0
14,1752423600.796666,2,2,1
14,1752423600.9991229,2,0,0
14,1752423601.2015815,2,2,1
14,1752423601.4040418,2,1,0
14,1752423601.6060424,2,0,0
14,1752423601.8084962,2,0,0
14,1752423602.0119548,2,2,1
14,1752423602.2140868,2,1,0
14,1752423602.4161093,2,1,0
14,1752423602.6185656,2,0,0
14,1752423602.821024,2,2,1
14,1752423603.024493,2,2,1
14,1752423603.2259421,2,1,0
14,1752423603.4293966,2,0,0
14,1752423603.6318574,2,2,1
14,1752423603.8348324,2,1,0
14,1752423604.0372653,2,0,0
14,1752423604.2397583,2,1,0
14,1752423604.442183,2,0,0
14,1752423604.644673,2,2,1
14,1752423604.8480966,2,0,0
14,1752423605.0510664,2,1,0
14,1752423605.253083,2,2,1
14,1752423605.4565766,2,2,1
14,1752423605.6590645,2,1,0
14,1752423605.8614914,2,0,0
14,1752423606.064577,2,2,1
14,1752423606.2656565,2,1,0
14,1752423606.4681127,2,0,0
14,1752423606.670571,2,2,1
14,1752423606.872032,2,0,0
14,1752423607.074496,2,1,0
