trial,timestamp,target,stimulus,is_target
0,1752428273.7595882,1,2,0
0,1752428273.9609852,1,0,0
0,1752428274.1628258,1,1,1
0,1752428274.3654678,1,2,0
0,1752428274.5694184,1,0,0
0,1752428274.7718933,1,1,1
0,1752428274.9750707,1,1,1
0,1752428275.178519,1,0,0
0,1752428275.3804624,1,2,0
0,1752428275.584082,1,1,1
0,1752428275.7872837,1,2,0
0,1752428275.9909575,1,0,0
0,1752428276.1928494,1,2,0
0,1752428276.3966362,1,0,0
0,1752428276.598624,1,1,1
0,1752428276.8008368,1,0,0
0,1752428277.0051005,1,2,0
0,1752428277.2065158,1,1,1
0,1752428277.4102557,1,1,1
0,1752428277.6129005,1,2,0
0,1752428277.8151994,1,0,0
0,1752428278.0165758,1,2,0
0,1752428278.218981,1,1,1
0,1752428278.4228034,1,0,0
0,1752428278.624677,1,0,0
0,1752428278.8263896,1,1,1
0,1752428279.0286605,1,2,0
0,1752428279.231995,1,1,1
0,1752428279.434724,1,2,0
0,1752428279.6360927,1,0,0
0,1752428279.838613,1,0,0
0,1752428280.0422556,1,2,0
0,1752428280.2449439,1,1,1
0,1752428280.447748,1,2,0
0,1752428280.6497424,1,1,1
0,1752428280.8523817,1,0,0
1,1752428283.4633572,2,2,1
1,1752428283.6644042,2,1,0
1,1752428283.8660626,2,0,0
1,1752428284.0683253,2,2,1
1,1752428284.2707207,2,0,0
1,1752428284.4731016,2,1,0
1,1752428284.6752117,2,0,0
1,1752428284.8781831,2,2,1
1,1752428285.0801141,2,1,0
1,1752428285.2818506,2,1,0
1,1752428285.4846284,2,2,1
1,1752428285.6881106,2,0,0
1,1752428285.8910382,2,2,1
1,1752428286.0923798,2,0,0
1,1752428286.2947984,2,1,0
1,1752428286.4980695,2,2,1
1,1752428286.6994915,2,1,0
1,1752428286.903614,2,0,0
1,1752428287.1067224,2,0,0
1,1752428287.3094563,2,2,1
1,1752428287.5114262,2,1,0
1,1752428287.714883,2,2,1
1,1752428287.9176292,2,1,0
1,1752428288.1188745,2,0,0
1,1752428288.321987,2,1,0
1,1752428288.5251884,2,2,1
1,1752428288.7287314,2,0,0
1,1752428288.9313006,2,1,0
1,1752428289.1322505,2,0,0
1,1752428289.3349237,2,2,1
1,1752428289.5388894,2,2,1
1,1752428289.7416193,2,0,0
1,1752428289.9434648,2,1,0
1,1752428290.1467464,2,2,1
1,1752428290.3493586,2,0,0
1,1752428290.5515394,2,1,0
2,1752428292.498984,0,0,1
2,1752428292.6998603,0,1,0
2,1752428292.9025946,0,2,0
2,1752428293.1056607,0,0,1
2,1752428293.3084226,0,1,0
2,1752428293.5115163,0,2,0
2,1752428293.7144866,0,1,0
2,1752428293.9175112,0,2,0
2,1752428294.1210787,0,0,1
2,1752428294.3229926,0,2,0
2,1752428294.525853,0,1,0
2,1752428294.7283812,0,0,1
2,1752428294.9308894,0,2,0
2,1752428295.1338987,0,1,0
2,1752428295.3363771,0,0,1
2,1752428295.5388827,0,2,0
2,1752428295.7408657,0,1,0
2,1752428295.9429173,0,0,1
2,1752428296.1459496,0,2,0
2,1752428296.3494806,0,0,1
2,1752428296.5513153,0,1,0
2,1752428296.7530172,0,1,0
2,1752428296.9553406,0,0,1
2,1752428297.1576087,0,2,0
2,1752428297.360785,0,0,1
2,1752428297.564036,0,1,0
2,1752428297.7673123,0,2,0
2,1752428297.9703045,0,0,1
2,1752428298.1733496,0,1,0
2,1752428298.3769395,0,2,0
2,1752428298.5785136,0,0,1
2,1752428298.7807972,0,2,0
2,1752428298.9835749,0,1,0
2,1752428299.186044,0,1,0
2,1752428299.3885748,0,2,0
2,1752428299.5903533,0,0,1
3,1752428301.6905015,1,1,1
3,1752428301.8926532,1,0,0
3,1752428302.094662,1,2,0
3,1752428302.2968986,1,1,1
3,1752428302.499766,1,0,0
3,1752428302.7025383,1,2,0
3,1752428302.9048758,1,1,1
3,1752428303.1063457,1,0,0
3,1752428303.308065,1,2,0
3,1752428303.510378,1,1,1
3,1752428303.7129502,1,2,0
3,1752428303.9156792,1,0,0
3,1752428304.1189468,1,0,0
3,1752428304.3220937,1,1,1
3,1752428304.5232499,1,2,0
3,1752428304.7264633,1,0,0
3,1752428304.9287152,1,2,0
3,1752428305.1321397,1,1,1
3,1752428305.334968,1,1,1
3,1752428305.5370345,1,2,0
3,1752428305.7405212,1,0,0
3,1752428305.942587,1,0,0
3,1752428306.1451025,1,2,0
3,1752428306.3481932,1,1,1
3,1752428306.5515034,1,2,0
3,1752428306.7539296,1,1,1
3,1752428306.9568548,1,0,0
3,1752428307.159007,1,0,0
3,1752428307.3615093,1,2,0
3,1752428307.5646,1,1,1
3,1752428307.7663815,1,0,0
3,1752428307.9691918,1,1,1
3,1752428308.1727986,1,2,0
3,1752428308.3747165,1,2,0
3,1752428308.5778234,1,0,0
3,1752428308.7810986,1,1,1
4,1752428310.9353862,2,0,0
4,1752428311.1378706,2,1,0
4,1752428311.341183,2,2,1
4,1752428311.5430954,2,0,0
4,1752428311.7457201,2,2,1
4,1752428311.9487307,2,1,0
4,1752428312.1514542,2,1,0
4,1752428312.354242,2,2,1
4,1752428312.5582607,2,0,0
4,1752428312.7608018,2,0,0
4,1752428312.963307,2,1,0
4,1752428313.166591,2,2,1
4,1752428313.3686447,2,2,1
4,1752428313.572474,2,0,0
4,1752428313.7744188,2,1,0
4,1752428313.9777644,2,2,1
4,1752428314.1790948,2,0,0
4,1752428314.3817163,2,1,0
4,1752428314.5848253,2,0,0
4,1752428314.7868605,2,1,0
4,1752428314.989254,2,2,1
4,1752428315.1911585,2,2,1
4,1752428315.3942816,2,0,0
4,1752428315.5984862,2,1,0
4,1752428315.8000522,2,0,0
4,1752428316.002887,2,2,1
4,1752428316.2048476,2,1,0
4,1752428316.407318,2,1,0
4,1752428316.6090117,2,2,1
4,1752428316.8119698,2,0,0
4,1752428317.014282,2,0,0
4,1752428317.2175624,2,2,1
4,1752428317.4198067,2,1,0
4,1752428317.6226318,2,0,0
4,1752428317.8255806,2,2,1
4,1752428318.0279007,2,1,0
5,1752428319.6137176,0,1,0
5,1752428319.8147988,0,2,0
5,1752428320.0178373,0,0,1
5,1752428320.220142,0,0,1
5,1752428320.4223127,0,1,0
5,1752428320.6255693,0,2,0
5,1752428320.8268595,0,2,0
5,1752428321.0299587,0,1,0
5,1752428321.2321997,0,0,1
5,1752428321.4333854,0,0,1
5,1752428321.6367095,0,1,0
5,1752428321.8399768,0,2,0
5,1752428322.0424151,0,1,0
5,1752428322.2452445,0,2,0
5,1752428322.4488091,0,0,1
5,1752428322.6513326,0,2,0
5,1752428322.8543174,0,0,1
5,1752428323.0575113,0,1,0
5,1752428323.259052,0,1,0
5,1752428323.462433,0,0,1
5,1752428323.664024,0,2,0
5,1752428323.8658419,0,2,0
5,1752428324.0695968,0,0,1
5,1752428324.2724946,0,1,0
5,1752428324.475034,0,1,0
5,1752428324.677371,0,2,0
5,1752428324.8790166,0,0,1
5,1752428325.0817478,0,2,0
5,1752428325.2841806,0,1,0
5,1752428325.488217,0,0,1
5,1752428325.6906002,0,1,0
5,1752428325.8927984,0,2,0
5,1752428326.0960562,0,0,1
5,1752428326.2977092,0,2,0
5,1752428326.5007205,0,0,1
5,1752428326.7031863,0,1,0
6,1752428328.8579838,2,0,0
6,1752428329.0588303,2,1,0
6,1752428329.2626379,2,2,1
6,1752428329.4651847,2,2,1
6,1752428329.6666744,2,0,0
6,1752428329.8700967,2,1,0
6,1752428330.0712035,2,2,1
6,1752428330.2728467,2,0,0
6,1752428330.4754207,2,1,0
6,1752428330.678096,2,2,1
6,1752428330.8809087,2,1,0
6,1752428331.0840855,2,0,0
6,1752428331.2864609,2,1,0
6,1752428331.488262,2,0,0
6,1752428331.6906865,2,2,1
6,1752428331.8929584,2,0,0
6,1752428332.0967066,2,2,1
6,1752428332.2984564,2,1,0
6,1752428332.5011292,2,2,1
6,1752428332.7038114,2,0,0
6,1752428332.905853,2,1,0
6,1752428333.1088994,2,0,0
6,1752428333.310045,2,2,1
6,1752428333.5124638,2,1,0
6,1752428333.7163196,2,2,1
6,1752428333.9204082,2,1,0
6,1752428334.121613,2,0,0
6,1752428334.3240852,2,1,0
6,1752428334.5268724,2,0,0
6,1752428334.7292714,2,2,1
6,1752428334.930814,2,1,0
6,1752428335.132833,2,2,1
6,1752428335.3357353,2,0,0
6,1752428335.538461,2,2,1
6,1752428335.7411397,2,0,0
6,1752428335.9428518,2,1,0
7,1752428338.3538463,0,2,0
7,1752428338.5555992,0,1,0
7,1752428338.757194,0,0,1
7,1752428338.9592152,0,0,1
7,1752428339.162364,0,2,0
7,1752428339.365579,0,1,0
7,1752428339.5675502,0,0,1
7,1752428339.7706783,0,2,0
7,1752428339.9735422,0,1,0
7,1752428340.176264,0,0,1
7,1752428340.3793771,0,1,0
7,1752428340.5816994,0,2,0
7,1752428340.785277,0,0,1
7,1752428340.9882514,0,2,0
7,1752428341.189997,0,1,0
7,1752428341.3921895,0,0,1
7,1752428341.5950904,0,1,0
7,1752428341.7985146,0,2,0
7,1752428342.0012627,0,1,0
7,1752428342.203837,0,0,1
7,1752428342.407154,0,2,0
7,1752428342.6091032,0,1,0
7,1752428342.8126369,0,0,1
7,1752428343.0145137,0,2,0
7,1752428343.2175555,0,1,0
7,1752428343.4206622,0,2,0
7,1752428343.6223278,0,0,1
7,1752428343.8259501,0,2,0
7,1752428344.0282373,0,1,0
7,1752428344.2297757,0,0,1
7,1752428344.431183,0,2,0
7,1752428344.6336613,0,0,1
7,1752428344.8358684,0,1,0
7,1752428345.0386493,0,2,0
7,1752428345.2407699,0,0,1
7,1752428345.44338,0,1,0
8,1752428346.615917,1,2,0
8,1752428346.8169303,1,0,0
8,1752428347.0195768,1,1,1
8,1752428347.2213736,1,0,0
8,1752428347.4244678,1,2,0
8,1752428347.6281288,1,1,1
8,1752428347.8303277,1,1,1
8,1752428348.0317872,1,0,0
8,1752428348.2344227,1,2,0
8,1752428348.437215,1,2,0
8,1752428348.6384418,1,0,0
8,1752428348.841326,1,1,1
8,1752428349.0424461,1,1,1
8,1752428349.2463226,1,2,0
8,1752428349.4494064,1,0,0
8,1752428349.6508288,1,2,0
8,1752428349.8536215,1,1,1
8,1752428350.0560448,1,0,0
8,1752428350.2592225,1,0,0
8,1752428350.4621968,1,2,0
8,1752428350.6632607,1,1,1
8,1752428350.8651607,1,1,1
8,1752428351.068636,1,0,0
8,1752428351.270851,1,2,0
8,1752428351.473167,1,0,0
8,1752428351.6767786,1,1,1
8,1752428351.879581,1,2,0
8,1752428352.0815058,1,0,0
8,1752428352.2840312,1,2,0
8,1752428352.4881747,1,1,1
8,1752428352.691231,1,1,1
8,1752428352.893385,1,2,0
8,1752428353.0955281,1,0,0
8,1752428353.297405,1,1,1
8,1752428353.5004807,1,2,0
8,1752428353.7032146,1,0,0
9,1752428354.8793426,2,0,0
9,1752428355.0809455,2,1,0
9,1752428355.283201,2,2,1
9,1752428355.4849315,2,1,0
9,1752428355.6881597,2,2,1
9,1752428355.8892763,2,0,0
9,1752428356.0920587,2,1,0
9,1752428356.2947187,2,2,1
9,1752428356.4986298,2,0,0
9,1752428356.700822,2,0,0
9,1752428356.9039204,2,1,0
9,1752428357.1069138,2,2,1
9,1752428357.3113036,2,0,0
9,1752428357.5137243,2,2,1
9,1752428357.7174523,2,1,0
9,1752428357.9198298,2,2,1
9,1752428358.122974,2,0,0
9,1752428358.3253806,2,1,0
9,1752428358.5281177,2,2,1
9,1752428358.731112,2,0,0
9,1752428358.932992,2,1,0
9,1752428359.1356692,2,0,0
9,1752428359.3376603,2,2,1
9,1752428359.5408573,2,1,0
9,1752428359.7431004,2,1,0
9,1752428359.9461544,2,2,1
9,1752428360.147413,2,0,0
9,1752428360.349859,2,1,0
9,1752428360.553317,2,2,1
9,1752428360.7560046,2,0,0
9,1752428360.958267,2,0,0
9,1752428361.1608992,2,1,0
9,1752428361.3628037,2,2,1
9,1752428361.5649695,2,0,0
9,1752428361.7681937,2,2,1
9,1752428361.9702506,2,1,0
10,1752428363.0924177,1,2,0
10,1752428363.2938724,1,1,1
10,1752428363.496594,1,0,0
10,1752428363.7004313,1,2,0
10,1752428363.9023254,1,1,1
10,1752428364.1057005,1,0,0
10,1752428364.3073397,1,1,1
10,1752428364.5098286,1,2,0
10,1752428364.7123873,1,0,0
10,1752428364.9168384,1,1,1
10,1752428365.1191883,1,2,0
10,1752428365.3222008,1,0,0
10,1752428365.524104,1,1,1
10,1752428365.7263818,1,2,0
10,1752428365.9293997,1,0,0
10,1752428366.1323283,1,1,1
10,1752428366.3354394,1,0,0
10,1752428366.5370028,1,2,0
10,1752428366.738632,1,2,0
10,1752428366.9418979,1,0,0
10,1752428367.1445992,1,1,1
10,1752428367.3465421,1,0,0
10,1752428367.5491772,1,2,0
10,1752428367.752928,1,1,1
10,1752428367.9547675,1,0,0
10,1752428368.1580896,1,1,1
10,1752428368.360987,1,2,0
10,1752428368.5648654,1,1,1
10,1752428368.7675955,1,0,0
10,1752428368.9708261,1,2,0
10,1752428369.1729214,1,0,0
10,1752428369.376069,1,1,1
10,1752428369.5806947,1,2,0
10,1752428369.7838688,1,2,0
10,1752428369.9864917,1,1,1
10,1752428370.189574,1,0,0
11,1752428371.5690393,0,2,0
11,1752428371.7707486,0,0,1
11,1752428371.9738572,0,1,0
11,1752428372.1753066,0,2,0
11,1752428372.378289,0,1,0
11,1752428372.5810812,0,0,1
11,1752428372.783885,0,0,1
11,1752428372.9855313,0,1,0
11,1752428373.1881592,0,2,0
11,1752428373.3911479,0,2,0
11,1752428373.5939887,0,0,1
11,1752428373.7973273,0,1,0
11,1752428373.9994862,0,1,0
11,1752428374.2030652,0,0,1
11,1752428374.4045684,0,2,0
11,1752428374.607883,0,0,1
11,1752428374.809698,0,2,0
11,1752428375.0137653,0,1,0
11,1752428375.2152858,0,2,0
11,1752428375.418546,0,0,1
11,1752428375.620377,0,1,0
11,1752428375.823131,0,1,0
11,1752428376.0266,0,2,0
11,1752428376.2303944,0,0,1
11,1752428376.434141,0,2,0
11,1752428376.637068,0,0,1
11,1752428376.840397,0,1,0
11,1752428377.042897,0,1,0
11,1752428377.2456164,0,2,0
11,1752428377.4475517,0,0,1
11,1752428377.6508596,0,2,0
11,1752428377.8545806,0,1,0
11,1752428378.057298,0,0,1
11,1752428378.2608202,0,1,0
11,1752428378.4622815,0,2,0
11,1752428378.6652503,0,0,1
12,1752428380.3016047,0,1,0
12,1752428380.5031252,0,0,1
12,1752428380.7065704,0,2,0
12,1752428380.9085193,0,2,0
12,1752428381.1118026,0,0,1
12,1752428381.313181,0,1,0
12,1752428381.5172205,0,2,0
12,1752428381.7205057,0,1,0
12,1752428381.922773,0,0,1
12,1752428382.1247103,0,0,1
12,1752428382.3271945,0,1,0
12,1752428382.5302446,0,2,0
12,1752428382.732571,0,2,0
12,1752428382.9362173,0,1,0
12,1752428383.138759,0,0,1
12,1752428383.3399036,0,0,1
12,1752428383.5438006,0,1,0
12,1752428383.7451475,0,2,0
12,1752428383.947932,0,1,0
12,1752428384.1506634,0,0,1
12,1752428384.3533456,0,2,0
12,1752428384.5565367,0,1,0
12,1752428384.7581952,0,0,1
12,1752428384.9619424,0,2,0
12,1752428385.1648977,0,1,0
12,1752428385.3677547,0,0,1
12,1752428385.5691764,0,2,0
12,1752428385.7722795,0,2,0
12,1752428385.9754941,0,1,0
12,1752428386.1782813,0,0,1
12,1752428386.3796248,0,0,1
12,1752428386.5815616,0,1,0
12,1752428386.783711,0,2,0
12,1752428386.9867964,0,0,1
12,1752428387.1890657,0,1,0
12,1752428387.3915458,0,2,0
13,1752428388.6682734,2,1,0
13,1752428388.8703566,2,0,0
13,1752428389.0734155,2,2,1
13,1752428389.2752216,2,0,0
13,1752428389.4787035,2,2,1
13,1752428389.6803787,2,1,0
13,1752428389.8823075,2,1,0
13,1752428390.0863733,2,2,1
13,1752428390.2878647,2,0,0
13,1752428390.4911532,2,0,0
13,1752428390.6939726,2,2,1
13,1752428390.8963056,2,1,0
13,1752428391.0996847,2,1,0
13,1752428391.302283,2,2,1
13,1752428391.5055108,2,0,0
13,1752428391.707683,2,0,0
13,1752428391.910259,2,1,0
13,1752428392.1137967,2,2,1
13,1752428392.3159342,2,1,0
13,1752428392.519467,2,2,1
13,1752428392.7220707,2,0,0
13,1752428392.9254105,2,1,0
13,1752428393.1290658,2,2,1
13,1752428393.331503,2,0,0
13,1752428393.5346746,2,2,1
13,1752428393.7364233,2,1,0
13,1752428393.9387977,2,0,0
13,1752428394.1418061,2,0,0
13,1752428394.3431292,2,1,0
13,1752428394.54515,2,2,1
13,1752428394.7469661,2,0,0
13,1752428394.9494116,2,2,1
13,1752428395.1521356,2,1,0
13,1752428395.3541021,2,1,0
13,1752428395.5558672,2,2,1
13,1752428395.7585535,2,0,0
14,1752428397.1386602,1,1,1
14,1752428397.3401628,1,0,0
14,1752428397.5431223,1,2,0
14,1752428397.7455704,1,1,1
14,1752428397.9474723,1,0,0
14,1752428398.1502573,1,2,0
14,1752428398.35297,1,0,0
14,1752428398.5562577,1,1,1
14,1752428398.7580287,1,2,0
14,1752428398.959916,1,1,1
14,1752428399.1621988,1,0,0
14,1752428399.3636842,1,2,0
14,1752428399.5655072,1,0,0
14,1752428399.7676558,1,1,1
14,1752428399.9717975,1,2,0
14,1752428400.1748598,1,2,0
14,1752428400.3765993,1,1,1
14,1752428400.5789664,1,0,0
14,1752428400.7811844,1,2,0
14,1752428400.9840422,1,1,1
14,1752428401.1869807,1,0,0
14,1752428401.3907495,1,0,0
14,1752428401.5929165,1,1,1
14,1752428401.795864,1,2,0
14,1752428401.998917,1,2,0
14,1752428402.2019196,1,0,0
14,1752428402.4051254,1,1,1
14,1752428402.6062236,1,2,0
14,1752428402.8076167,1,0,0
14,1752428403.0095897,1,1,1
14,1752428403.2122355,1,1,1
14,1752428403.415818,1,0,0
14,1752428403.6175072,1,2,0
14,1752428403.8200386,1,0,0
14,1752428404.0243106,1,1,1
14,1752428404.2275536,1,2,0
